462 
APTV DVN HSY CAG HST LUV MMC BA VRSK TSLA YUM DE CHD PHM XOM LULU KR EG GEN NUE RF ABT ALK EQIX WEC VTR UPS APH STE ADSK EMR CBOE EQR ELV BBWI AAL MCHP CTRA RSG FE NTRS SBAC EW BXP CL MU XYL MAS RL BIO AMD HBAN CNP DFS PGR ISRG PKG ADM ECL QCOM CHRW CME ORLY ZBH LOW PODD MKC NOW ACN SWKS TJX AIG EXR LNT CRM KIM WBA CAH ODFL FLT SBUX GPN IRM BDX OMC TECH WAT IFF CCL MRO COST LIN BF-B PNW RMD FFIV EOG DGX TRMB BMY PSX SNA CTAS CHTR AEP WELL MNST FSLR AMP MOS SRE UHS HUBB UDR FDX CDNS ANSS GM VRTX GOOG BR GWW DUK WRB CMS IDXX ICE FIS FAST PPG PNC AVB ROST MLM AON CF KMB DOV TROW AMZN NVR MCK CVS PFG FMC AMGN PLD A KDP ETN PRU CRL DVA GILD VFC VTRS COO GRMN ES CSX SLB KMX BALL ULTA VRSN ADP WMB META INTU UNH REG COF SHW ROL MMM WYNN VLO FICO PEG HII LDOS TFC ON PEP USB SEE JBHT PNR PXD AXP DRI REGN VMC WTW ORCL ADI MDLZ CLX HOLX MCO HD HAL PFE INCY D ALGN PM EFX MO FTNT CINF POOL AES EL OXY NTAP PH TMO KLAC AKAM PARA AFL MTCH SJM MHK NXPI LH C TXT OKE RJF TT FITB AVGO TSN BIIB AWK DXCM SO FDS GPC JNJ TSCO XRAY EMN BX PG TRGP GS WHR ATO NFLX PCG WY COP AJG HES MDT AMAT ILMN GIS LLY DPZ IBM LEN SPG STX CVX JPM NDSN MA MKTX CB F BKR FRT WFC WAB CTSH PEAK CPRT MRK BBY BLK PAYX EQT CE CAT DD MSCI TAP ETR JNPR TER RVTY INTC STT LMT SYK HON DIS CMA WDC CPT TEL ED DTE BWA URI DHR ALL HAS ZION TDY DLTR PWR MAR TYL BKNG L HSIC PTC ITW ALB CNC GLW SWK LVS BEN FI HPQ SPGI DLR GD IEX GE SYY APD MPWR SNPS MET MTB EXPD HCA EVRG WST KEY TMUS NEE WBD AMCR APA MCD NOC MOH TFX AXON TPR J CSCO FANG ABBV HUM EBAY CMCSA EA JCI BK ADBE VZ FCX MTD SCHW LYB NDAQ CI T GNRC EPAM MSFT WM LKQ ROK LYV TTWO BRK-B AMT CMI ACGL NI WMT UAL AME NSC AVY ENPH EXC MS AOS MGM PSA DG STZ EXPE CSGP TRV TXN KMI ROP ESS IP V BSX IVZ KO HIG BAC NKE DHI CCI BRO CBRE ARE COR EIX LHX RHI RTX MSI PANW ZBRA CMG DAL NVDA IPG HRL MPC NEM PPL XEL JKHY PCAR AZO IT LRCX GOOGL MAA TGT BAX RCL NRG O GL CPB STLD BG TDG AEE AAPL AIZ UNP K
APTV 0.23584795079385000 26.59746254803950 14.778096639140600 3.0641005442695800 2.264343920040660 11.601310561072300 11.322953073259000 6.545987517385810 15.774890278547500 6.146143955452750 17.156187483394400 9.205346995271610 8.36616085390796 1.7087849659457900 12.977277487850600 7.606935630435170 10.385603614018400 0.15132315504486400 6.106658923927620 3.9283733688805000 9.913895484972890 14.256092684676500 5.503436992717750 15.025959859799900 4.425743593302830 3.285726112146450 13.457612948947600 5.302676812180160 8.934055597140710 6.0428517610155400 9.892156200077030 10.70646637142640 3.6615062907754900 5.324137543663540 6.215937248543140 15.191107147480500 15.625031601217200 13.187722927211500 5.310618563635570 4.14288858949794 3.003949170075830 9.391948911052140 4.392841009861630 7.569516681819540 8.79961496093453 2.0181944741029100 13.277440163618900 9.200604390050860 10.614481903569500 12.656744277361600 5.2162075827271500 12.583644539831800 11.92646247074700 6.680619694741330 16.586081961390900 3.2476269392512500 8.028696205656380 7.392653646085840 6.940500562102240 9.604937309361210 8.628628330589990 3.2669510204461300 5.056669517593120 5.790559310271330 9.332769220131640 9.495089387600540 8.072309251039320 3.3343224838815700 8.249603783699690 7.1893907651571600 12.302799108913700 8.834552045231950 12.31227648263550 4.028708853795900 3.3722066394068800 7.934621691058410 9.614895790878860 5.096154174274460 5.395522445103520 8.77210812288792 10.890416990260600 8.028372285860090 11.321398204059700 5.693714411911180 2.937575750755850 8.315179807898440 5.504461865965310 6.243301312222830 8.531362314461810 22.554983382649500 12.030906257546600 3.190104782617420 7.476594027560970 4.820968387524310 4.209698537401300 5.410119338842040 8.690315904953820 10.621345178255800 5.696572917274860 13.673248357414700 3.9113142210497200 10.316263063971400 9.60255980458066 8.836178970873810 7.335402857443700 2.3275988729572400 10.773382014176500 4.628261560110790 10.930545353061600 13.489016833124500 15.783721810733500 4.078521096430460 8.604580500751190 9.032650009120170 6.054918870649170 10.64528366115670 7.113151687863230 7.32498858740117 16.033504689205800 4.548370274622850 6.6888908903182300 5.893878663830160 7.5147767551672 3.1472422535368300 5.989493770148170 2.4996990757517800 7.320030538782480 5.678168052921120 7.423887289147930 6.618427692648250 10.747590689403700 10.31170242879460 5.955317014075000 10.09866099874890 9.806868701684320 7.066223577413580 11.601713531076900 2.2823014191197400 10.806647277116700 8.883352528255500 6.520094574530610 8.851868857716260 5.047183063884630 3.897527983864650 13.710914456852000 10.424762553664400 3.703334606521420 6.114484278995330 6.630973689242950 3.9462630894141300 11.431603807554100 13.306123828036700 9.10600862880845 5.784606327566940 2.201195979833490 11.885480194249200 7.793906020274270 6.005976024528310 7.654187049690050 4.4787408130033200 9.643916466933590 12.676621314466200 13.19309120034830 7.086220326958830 12.564822151159800 5.868054308064910 6.864579393318640 13.16437220542300 6.531120769070020 9.194172822502030 4.91970702574951 8.949520819915240 14.437066874651 7.845468004421030 4.491710260687390 7.5615389575589100 19.714690259442400 11.507333379592800 9.854998292356490 4.487684715200630 6.245390072640350 5.943776373440320 11.612256688583500 20.814278129028400 3.4692337547305900 9.262450178306140 11.431176216932900 6.518793094271360 11.271836871189300 9.802025863503570 12.771958258364900 16.616074379831200 2.844100897796240 9.039628035755910 6.5969956600086 4.746113637758370 10.085063005332700 5.251904034469700 -0.18336924341011500 6.959607964537680 9.512673177752970 8.332394934897860 16.16539534520630 3.915795710686230 5.90038561377253 3.03902953035925 12.652679986336600 4.753250520961400 8.305285994992500 3.7397572257136700 10.001264528882500 6.994352421181390 5.536302897619310 10.957794820715100 9.219880891140450 10.329603872624800 8.876043665362380 13.610750372538000 6.084418299149040 11.233225487827600 5.978971465680780 12.153129496735300 8.57587904379818 12.701966601109900 2.3196220820224900 15.333013401850300 15.034972022443900 7.848612165444690 12.957413993210000 10.91483111230780 15.408014208649600 10.864214641577600 9.242969132266320 14.600608842871500 11.687333793037100 7.3467136012878200 5.59915319664005 3.463159401609040 8.363326452823410 4.086035925637690 6.6451173263134100 10.093303214356400 3.40090651414748 6.082138037795700 7.915453633703430 11.552301405706300 11.780899708188300 2.4427338720531000 19.037814295755800 11.447589003151300 13.740414746461800 3.62204966076084 7.347103898686450 8.723481560419200 11.73460332564230 11.863866607835100 6.210515596495510 11.302967624560500 6.2487053434693700 13.103140725477600 9.822485162941660 1.3922830465016900 1.6667932745228800 5.2711243171316300 6.539314338221350 12.089529095926800 12.73454074310150 9.172163408474720 10.0176442864807 10.16207485484780 10.627383570230000 9.610473466810420 6.031662751826720 5.922812900302160 14.38926865693650 12.17893573816860 8.567699403252050 10.436468661008300 11.622903515147500 9.180808735974040 6.571597633478790 9.435056741343340 2.1962030058269500 10.169185810956900 10.544076064580800 8.085187776564400 8.548735553461880 12.350382787494500 9.421997692353410 12.317421870222000 8.271639795334460 6.189633194289660 4.439838901531630 7.786917849440970 13.142073604323000 7.878821965030060 7.551067559728880 11.220559082741000 3.2280196213022600 7.512980632568800 8.367851022683310 8.855403184674820 13.035379131089700 15.83797378692380 5.383173193053400 12.108786546947600 1.9470636927433400 4.11426011226056 16.13731571057680 17.050049533276000 5.844901048242760 5.518234822641540 9.59625011872333 12.06066832210980 11.512159462434400 7.247969321370870 10.818136526890800 14.887631967507600 5.376127488802670 11.884474452273200 7.919919514268970 7.71536605341245 10.121404921231500 9.679312533738640 13.457347637071700 5.276592424640510 10.312923779737300 12.224052963833100 12.220082429368000 10.263931626626700 7.015752744455990 11.323349306755100 7.62436696568008 2.8437195533978500 6.265572426283480 7.126931427890980 10.118851898373000 10.058520185393000 6.672691550494930 12.733800771636300 7.428765918314320 12.38362405209670 9.85262896100196 7.829776993495490 10.442589105144100 4.144486221445230 4.521975188691900 14.05054034584920 4.435061957550530 3.584361583058380 10.008427045085100 6.27865954496155 15.39386905096930 6.24049593260488 2.980297257285800 6.038120522660570 7.243705513568150 12.665529056875900 16.471285483298300 8.717169315802550 6.148413549870460 17.289673345021100 4.842634217366820 4.874645613758220 7.841544052273230 5.561307932761230 4.730514792047270 9.407808702420580 9.708838941225650 6.209619542580420 1.5549618338806100 16.74702532491270 8.016324694867 10.136092879806300 11.435696831759100 7.1240698259731800 6.314352653680820 4.5161961208397200 9.731905247963290 11.076777091944300 5.24504349059685 3.68974644530844 13.367186819593500 11.42178034268010 16.431926832468600 4.7196561493912500 5.93833341275708 4.3177810276083700 10.87136588831900 7.645238172887140 3.5637173182472500 1.0986464697108000 19.438114490537400 9.669227246462410 9.81613249730156 10.710880942051600 14.986507744665000 4.5415469794834500 13.330195621947200 9.30171232861964 22.68129881398480 3.0847443463104100 2.4757335531327500 7.636396644111470 16.02926794641340 7.2849774251075 5.6333095068790000 7.070841099999130 10.310926773238100 6.7759601872982700 5.878408183162000 8.517900144736410 8.286382593729750 6.4678505587344500 14.731548476982700 3.916474664164010 10.697498283145400 12.59561663126570 9.485586877281730 10.874862005139000 3.559520712995480 5.734702005374340 12.973215567328900 6.586877342479060 3.899171323827810 4.716663815331160 5.494266149475260 10.811932157857600 9.8464611220522 6.5328208421843800 9.495332383882650 11.297707284844200 11.252610318726800 16.371310840908600 12.478522979007600 11.455443732038100 0.5820666898705380 12.136335030972300 3.4907441481692300 6.307467797730440 2.629407587986620 5.389742696702980 9.281530769401050 6.095042378046740 8.82785032772462 13.366724580949000 6.692617191423520 5.336673075235320 4.052057065438500 3.8079802529425600 21.384544351257800 8.072732332860390 7.259142753894270 8.749196320512260 0.35103798094317100 12.3831853356589 7.251852908987500 13.716920847511100 2.6166399652922800 7.353120469225230 7.046056703461890 8.246911838378590 2.3127228769210000
DVN 0.20931364446446100 14.778096639140600 42.02249312481380 2.3056139072899000 3.3090968640643700 11.857114666840600 8.160964546088640 5.611922963383110 12.794990592479200 4.3199372299617700 10.399214049925100 5.241248339548180 9.48987084613506 1.1563982820112000 10.305495890432900 15.173930214212600 7.715443310274500 2.245392813252720 5.778004274703420 6.640096625008960 13.390001981579700 15.50724282354250 3.951375907340940 10.135936892093700 2.494132869784260 1.0118650841447200 10.271240309440000 4.48128691579771 7.028481507110580 6.703208237334020 8.144346642115040 12.282430897729700 4.106025867371220 4.560693784864270 6.014886588054700 12.04427831907060 11.918392858336500 9.885573092729060 12.819816870101300 3.5595623174273500 3.008597446077480 10.947852805411300 2.5581388036635400 3.991157302949280 8.399856004414580 2.335791618023740 11.775199103935800 6.90156547503281 8.214602730268640 10.531641044816000 3.2739833815508300 9.837528243964680 13.701682607469700 7.727494145500490 14.919196632907500 4.113609083190860 5.331884723542180 7.666895126527810 9.445612506561770 6.805024345238510 7.673006481692860 5.475045907690290 4.0176472532047800 4.973775567090610 8.49994910419119 8.792199190563350 5.961001249428500 2.958786882538470 5.125890095342030 6.624909405340080 8.358320253695900 7.1113745907439800 13.177287560525600 2.9614602917457500 1.9055091111731300 6.089351164402760 10.57953944951790 5.627464568571500 6.455339903479230 7.304419598461380 10.869805542894800 5.603165928898900 9.153336907691610 6.740115303225900 3.28301780241581 8.417062789533550 3.6148718107647300 4.327778287620560 7.183136157446220 17.033366801101700 35.421196002817200 2.2794930628092500 7.221114602116050 5.04440464247773 1.940417592992740 4.556994307520370 7.530335609480120 26.521467960802700 4.5386826839076600 9.853534733709790 3.185052462280410 18.368134805298900 9.507194395375750 7.440957719016680 6.534251090458550 1.3923720930438800 6.979322996102990 2.2820245443007200 10.362991645107000 13.677956278266100 20.285128728862900 4.476056645035080 8.126533464581860 8.812678509447600 4.663024463032860 8.798238996261520 5.012910442969490 4.917106221553560 12.549318642475900 5.81080491105139 5.45665348574176 5.9792567910044600 6.941683299379240 1.9132124420476800 6.243398792387600 1.218311140754140 4.259929091114580 4.761621150167020 6.087906736254440 6.379782495552750 8.280040775772800 11.277270222516600 4.791502553806270 8.506224307548420 9.001828493884910 6.416624798431300 16.163290989705600 1.8364335750012400 10.539898616605100 8.77659143200582 4.583905116975730 5.77623405068022 6.956666090954360 4.599335767485810 14.161904027915300 11.251312157288000 3.8780897607224100 4.451038261530180 6.2735873267909000 3.254026854031060 9.953322720082220 14.266939697358200 7.60258509481301 5.543106145301340 2.5784406736787600 9.742441932971240 8.190758522634480 4.185586894435510 6.638244168481700 2.0450772540482200 10.006581041373500 23.850398098515600 10.267406474035300 4.814634960174650 9.814914358030520 4.562343957935840 5.813867850417170 18.515741748345200 4.963186084660900 6.021867562977740 4.524184020250350 7.991237908358650 14.21576795226520 5.962913136018600 2.8363109987814200 6.164465877142380 15.938509552095600 18.83506503528710 8.514511078064670 3.101128091074890 8.55216567359585 7.49348379965911 12.65893602903820 14.423079139755700 2.772087518702980 11.182172448106100 8.12784082174141 7.040428563095100 10.397030822212500 23.949730674671800 10.843236715123200 12.462011234202300 3.084782552189760 9.15823475495695 5.744090318609230 4.89547950226413 7.888520169488340 3.8273502623836100 -0.37088443005229900 5.716601636079290 7.4414036960297300 6.386032508849290 29.50549868005290 3.6423250243383500 4.867532782094200 2.0157076733538500 8.686659781295520 4.056405187885750 6.468972465893920 4.5713681767057700 8.316591291277080 5.7558160222972000 3.173386448895720 10.607674696562300 5.80740183262802 27.010488214677500 10.198390443745900 14.078055152282500 4.267087454695220 7.904012381127730 4.370270646266370 15.42379231375980 9.526647002013140 9.233054414236940 1.7944025867341900 12.981365992244100 11.00420734398450 5.80106301453518 13.84800566162820 13.065143687804800 24.398687018852500 12.204107378932800 7.242587785203170 15.304358483429800 7.727820001627550 5.847562685114010 5.908179179888740 2.1278264867174000 3.263991140709200 2.759383069984110 5.720769959501190 8.617224044258280 3.4139794905146800 6.26588330993823 7.232961736154250 12.902550739933400 10.235313631351400 1.6744691512948300 32.52831395484360 11.694552248239700 11.310024366728800 3.3145819438119700 7.051757456745660 7.82360801332263 9.764706345236180 24.872244286444100 5.707169903994630 27.435399898689900 5.683939978060310 9.030382781373320 4.831797734472710 1.9392826519164300 3.5705275443595700 1.1207849881848300 7.779711344157430 9.272689090026150 13.161766725872500 7.814886716789090 16.948070681486100 10.59246818617490 10.087687351824700 7.444936254401160 2.2315409356733300 6.170735506215390 12.96539605660530 20.438336571603400 8.63687904539683 10.88223896370640 12.508793346254200 7.509799030439080 4.807125685426250 7.508981092805560 3.234183850120050 9.294098725163870 9.606839039046540 6.751335435539630 15.020903964135100 13.509231443947700 11.115299426081400 13.746694687400700 5.693056417957460 8.368800910922890 3.3460939102398700 7.3522823710641800 8.223400637974190 6.4530658336764100 7.635376246388280 12.384189265296400 5.671703462813560 7.147058395871590 8.405523991677760 8.864865188370410 16.60025756712920 14.001436255709800 4.5199880910197100 9.636436431770920 0.8431770113657000 3.8034281959261000 12.556822571911200 19.227366662666500 4.739015138856030 7.19289011862227 7.110467261825780 15.161955456368700 9.060053623151000 4.229386705635030 11.708912890143100 12.098071389395200 2.949547463977360 8.596303840277950 10.268041536317900 7.088402618496630 10.084644864167400 8.064634887698730 13.241316516772700 5.197917124938620 8.833444885352070 9.940590959047290 11.200524260248600 10.892623376901200 6.933901326556210 11.527525688798400 5.805935951706620 1.9090907009112100 7.857720761826410 7.436097872218100 11.92390060178100 9.441898097542560 6.839984192533810 7.33814918244457 5.5603397436639400 13.816242723302800 12.169929849853900 6.292512427054280 9.694232421693410 2.8261231427847000 4.486248109301620 14.775423148321500 4.744311881781400 1.939171228376040 11.538868728166300 6.13652980306757 36.23105488342500 4.073211330208610 5.453393875104980 5.512108418807990 5.596816365263950 10.00593963710950 13.819556043565700 9.721891684976310 6.434950927699200 32.55520529767280 5.476998258984700 4.510032053468340 4.5572516107691800 6.320572406406680 5.0444766975355400 8.241478503340260 10.242545778587800 4.681052360103550 3.2143152367253000 22.614114917710700 6.009068485076550 12.304862028235600 15.824142003268000 5.670992804167470 7.620519304174720 5.194798834383240 8.390336347547860 6.154420240599980 4.317568424788630 3.214606965586530 12.527710570477000 10.168520666747600 12.911929043855800 4.1669627980073600 6.266314694495090 2.282973746908150 10.923322136105900 7.132967909967400 3.2123562423896300 1.549843706434760 13.234355264724800 9.100217445492940 10.382845791897900 7.47506613821588 13.676931214297100 4.0564059975662700 12.209319848429500 7.5724500294603000 18.856756715775300 2.439081049907550 1.8789339517393500 6.504553836024840 10.163692028530100 4.570919052491680 6.138858459110450 6.331621689885040 15.903642692233800 6.321917140045190 4.334082873326650 9.748675466654890 6.654612629701390 5.677353456717730 13.340615351642800 3.880461765696390 9.500733561119200 13.035938233288400 6.496999836558660 8.703492605970950 2.531814692882710 5.166567049682370 11.619851760263500 5.133259208888920 5.006125895456420 4.587313228686790 7.396133001197630 10.704389794949500 10.58595624069950 5.473017440786210 8.681387732204020 9.82446354360143 6.653975092601330 10.172136872258000 7.764582998845070 10.200957110563900 0.14913121762536200 20.23223767865330 4.33865268863182 5.283340408995210 1.279796321766210 5.580447019863570 8.831271688624350 4.320233033137360 8.623217055625810 8.906053026253550 5.380170741199160 3.2172290897067100 4.438510875666300 3.9423733313784600 17.24743414770150 12.016262246868500 4.144709678845710 9.758414474395240 0.8093398396821250 15.489979340242100 10.290904267164800 10.162484689029900 1.9914555620053200 5.870277463031230 7.621633277418750 10.036320465776500 2.2790116424591100
HSY 0.20889248181352200 3.0641005442695800 2.3056139072899000 6.338660729201910 3.0819482439524500 2.44543834297404 2.462401670147030 2.5779226698425900 3.8907739175064400 2.662695988475390 4.4277633277152100 3.04627699134124 2.5926806623967100 3.062284593542590 4.159684579954750 2.0766064642516300 3.2692255437136400 1.907214753871620 2.596790248463110 1.3948700009386500 2.216849137424890 1.9254394606618800 2.2751382029579600 3.1785572121285900 2.400707271128070 2.9297023203964400 4.943593386412950 1.7364560493174500 2.0641403086797500 2.7015637716591600 1.8796782413741400 2.125607967590860 2.6942407542128900 2.9738743796079600 2.92436644977626 4.150767817228060 2.408270974441900 2.809084042365290 1.369785244635450 2.9487611982685300 2.449753962174440 1.4699020911556000 2.4836412021643300 2.843744920744860 2.8710945286150200 2.9851044513589900 2.4484562204571900 2.663353573043080 2.5126038472465200 1.646590612501320 1.2334846612519100 2.73393320254075 1.7315696717525400 2.7366078260375700 3.5917329332876100 2.2144946754572600 3.356042328165150 2.0011974381724800 2.814699290490910 2.9058055902022800 2.2816558863544500 1.6793095488976200 2.38680137547496 2.834511044835360 2.7552827471879800 2.826961288785790 3.431799464746090 3.5526996438554700 2.0006986147684500 2.264599446713840 1.9103369131864300 2.6769703961862800 2.6488791801878500 3.3046182623349200 3.0659654969195200 2.3836771493961600 2.819429094029820 2.2957119190611600 2.7059679773715400 1.989382717717350 2.466700349102950 2.2401856788388400 2.822963894983290 2.65421054654137 1.8291251790070700 2.2261219113298300 2.189528852322940 2.194607170451280 2.1765883937464100 3.339476252201560 0.5328241990984330 2.3076763646607300 1.972112311487040 3.1042721966557900 3.4542766044020600 3.333199427179720 2.228946990847110 1.875231022361540 2.134753284778810 3.31148347147461 2.555095452710490 2.223923236536020 2.064357470845410 3.3277629026973400 2.5065938026056100 2.7330744664910300 3.9196991163843 2.4222589742748100 2.4199192970577000 2.3326391488827100 2.4769982966257400 2.684442921500180 3.8245333079860900 3.0240648130443100 3.134573953280860 2.2507586027478300 2.23365714623216 2.111908483955790 2.772261938749460 1.338067224038300 1.896143218948720 2.200876104329660 2.4072700289982900 2.8900986781043100 3.123159881960190 2.970316820846740 2.809266710406250 1.951528920267190 2.57264087467324 1.7568253378163400 2.618033092018910 1.7648625652973600 3.181926671985790 3.783917787049880 3.0243557824256100 2.6014206874405100 2.354560138858600 3.1077352968144100 2.741542799270900 2.2788421416238100 1.2735993795734700 2.9907702965311100 3.1875939204752400 2.669381646930400 2.7075919693456700 2.3049147997756400 1.9779824548788300 2.9173662538705000 1.9957406884015800 2.3516126645178100 2.7097534852085200 2.686757148959380 2.758162265154520 2.3394651581255500 0.8795704031047090 1.9860469252034300 1.3107047123625600 2.5713685388609800 2.0658539068307800 3.4977454371868600 2.57871814733004 1.4977821996137400 3.3742190544198400 2.600457045557720 3.5808284806512300 2.2874947628031700 3.0882472293885600 2.4391468063334200 1.750163492719180 2.9357324226855800 2.8512011470481000 2.9731138998116900 2.7509131374112600 2.669613332268460 2.3609377389347600 2.071870895126780 3.0041237358025500 2.3612151771153900 3.5186063813816300 2.9298570537351600 2.7334557121344700 2.8104935412365200 1.9195160886692700 3.4530286632557900 3.056214466675170 1.6797864592164300 3.4866682522398600 1.6111251969040800 2.9839196827261800 1.2988689799756100 2.9039097186091400 4.1813714566976800 1.5747524475472000 2.987245436887700 2.4914680659764600 1.717210704781630 2.2990475475247300 3.694505217376490 2.0997276997848400 2.383668775906710 2.637300318690950 2.67230794642026 2.5331927643102000 2.2142771320207800 1.862296392819040 2.947659770858670 2.6445604642552200 2.8747223052025900 2.343382531067260 3.076481314440330 2.8252420892906500 3.45133939188153 2.301631915483170 3.572649152563380 2.4198754648931900 1.3522363511295900 1.3793801737984900 3.046397237534800 1.9801686967696300 2.4270123747155500 2.243198456127920 2.5386450449069900 2.893532510899880 2.1713938367256900 3.2320309669128000 3.5663516629902300 2.8907392089554800 2.469559032983110 2.0551617075590500 2.581866596594040 4.035584930615770 1.5614088984119300 2.8098032435777400 2.543905074274500 2.9658201346140100 3.2940197470082700 1.983380875563200 3.014196477282780 2.869758648468360 2.934173984257200 2.4677575560901700 3.1465493641138900 2.461183229152080 2.743641513469770 2.1126728309062000 2.076168268083670 2.2701680638859600 2.5867218545862500 3.765178213367200 2.1892589244534400 3.5910394666056000 2.9307595072604000 1.243159626297350 3.391933582925020 3.432199133395140 2.324180433393260 2.5751694434097300 1.9651226452360600 2.7210330888417300 2.898229646528340 3.302340371749200 3.3669526693138800 2.0005237337719100 1.581058927373510 2.2580074032849600 3.836431595794430 3.4791369117400100 1.570601473270890 3.000362502819190 1.5926494321142400 2.5250811076058200 2.617077818131500 2.2048817403719300 2.840885886378850 2.766181537093600 1.751945527913380 2.938101330709000 1.8191471265274400 2.249201824911560 2.0913420878444200 3.113676504011000 2.5224720982631900 2.3249179164036600 3.2836745363221400 2.725727707430020 3.3202221670801900 1.5240429106118700 2.3786233298699900 1.4401780780172600 1.721905320424530 1.9167166479664100 3.2855533062993900 3.040568563624500 2.33901715776387 3.112312761972520 1.8493870858991400 2.1923830267214800 2.135232789080330 2.9473286179617700 3.3332417852807900 2.8579193031299200 2.5361661925636800 1.1267948957568200 3.098624769448080 3.0823177394831300 2.347231883547030 2.561340024510490 2.9015951836775900 1.639346808618670 2.718230615517690 1.9772030042610900 2.709763517846250 3.1257319958207300 0.879452079817139 3.3626508982970200 2.590152699285060 2.8940204610151600 2.8770752732677400 2.0396951959219100 2.22850635203718 2.8118143232383600 2.3275759563246900 2.375789479955920 2.588477540683430 2.6947046210497700 2.7040491697679800 2.3986065686093100 3.2024458582433900 1.5795100489162900 2.283295803998830 2.671288692296770 2.8684819453490100 2.5330536953423300 1.8935164818864800 2.848672257980600 2.266275320504250 1.82790817202778 3.710466541675650 2.0750197669580100 1.4591771331557300 2.1711099237396600 2.5236611152537300 1.566374954254900 2.228255968747040 3.6858663156920900 2.9476578347580100 2.3056301749460000 2.37058381048087 1.8942278779371100 2.952227636908660 2.3401012155049800 1.9636938818604400 2.5190545212643200 2.5156063118543600 2.7738518035790400 2.4702928916902900 3.255832403496270 3.667919804804400 2.145382320460320 2.81302456650217 2.1857525233167200 2.960765355779170 2.3866295666805100 2.5304241147772000 1.9502175936487800 2.2830190363248700 1.6053262388111700 2.7155872192655800 1.76306220564515 1.2716827204417500 2.0441786285789200 3.2147404986026800 1.870049100900150 1.3033652189356800 2.1447540852383700 2.8990256017887600 2.732455201366410 2.2481761931536700 2.4297104621092400 2.2454627768571900 2.0618403390912600 2.818656238850760 3.315621530466580 2.2329504219864100 3.110270475197090 1.7550081212851900 2.0906169356388500 2.7333952523959200 2.318451190320240 3.1532580758194900 2.838169300561950 1.9296472569091900 3.1190947439470500 3.0329344633696300 2.5321053348953700 2.8468253308243500 5.277094530978500 2.8966618068848100 2.251982728091120 1.7291167261188400 4.391726033072790 2.7257514036396800 2.709085401320290 3.651478524598130 3.0993109090709800 2.7074187237059200 3.1248456238479200 1.636604484580570 3.441800560414770 2.1887989649299700 3.1478419988973300 1.8843990676605500 2.3878736819678000 2.9879158667351000 2.5238494243663 3.085535174733950 3.7614742701202800 1.5987607427071600 2.5500441426061500 3.7128489550422500 2.6868603896323300 2.6216548842343000 2.9437098249625800 2.617177292553370 2.459799881861770 2.8517130875497000 2.8632531337263900 2.1605294684687300 2.918567416861280 2.6198175628593700 2.362123935815480 1.4111137615685800 3.6266982526822100 3.216708782019060 2.4280535453627800 2.4323535970317900 2.663122059846760 2.543853995330220 2.3538620053190400 3.1240802767974100 2.8296050011999800 2.2728742209563000 2.0386844341127900 2.5631170382676500 2.6320125392880800 2.859372190181830 1.9151237809455800 3.2380649917807900 2.363376024963790 2.1368793192690100 3.9730534411017600 2.7635509338227400 3.385438814303030 2.4599883283560600 3.089024993665220 2.4580869522644400 2.602136128008530 3.0518379120824800 2.729323928401850 2.244010822277320 2.4257712594381000 2.248227648402100 3.1396288501612100
CAG 0.16463680366755400 2.264343920040660 3.3090968640643700 3.0819482439524500 10.795453924890500 2.2512974309725000 2.01396292102321 2.2191211781019000 3.1732121233361200 2.048474898034720 3.6091944099638600 1.8092656705357900 2.46183741718611 3.1655458782330700 3.149256150222030 2.1357964987829800 2.612261863433490 2.727812128457160 2.0249844936787100 2.2807055283377300 2.389749060890990 2.4645504314204600 1.952910657835980 2.2891022184024300 2.2633922429712400 1.9241435948681300 2.235619634174670 2.510885257323460 2.288525858685170 2.7471573246133700 1.8779158538042900 1.559494233303560 2.6757847430013600 1.876681929844010 2.4093759274380100 3.739592515936080 1.9520786662413900 2.8279349192410300 1.671122548996460 1.9322965594742000 2.443474372381580 2.5810629931118200 2.177275895093370 2.01151460509292 2.059175082766880 3.0391944090556400 2.2821654340763800 2.189437379332140 1.9913053852945000 2.2868360091070700 1.4860089918616100 3.2810109923129 1.9531102293493800 2.7427931448535000 2.1884395217377300 2.5300668141134900 2.3788086443466400 2.248198441269810 3.016837972604720 1.9412748231283300 2.3930042042040800 1.924426274073250 2.0014809470381600 2.5962831624670600 2.4093694893795700 2.4588928460073700 2.324526880109310 3.9008636635070000 1.7122073760520600 2.5091550898779800 3.3717859933509400 2.188073611435460 1.9308942952612600 2.4514253347595200 2.3277047087401400 1.923478269341880 1.8967938788786900 3.262450331082100 3.168003488191170 2.0053489178610300 1.2549487987818200 2.154815296153960 1.8428399954255400 2.537953966225870 2.2342682752945900 1.9358618940304500 2.629586665905250 1.624413786504760 3.1164277302956600 3.0627514822544700 2.131565552463740 2.540318391237030 1.623934734279830 2.822427433280960 2.615995312695020 1.6301904345758600 2.2289710442757800 2.6758809788592400 1.8539323871733500 2.470498673192170 1.4936626344952600 2.7199256935959100 1.6793473678032000 2.1036064809948400 2.3095565079017100 2.183516766448170 1.6036543971065900 1.9731343868184100 2.593423998521850 3.2663749455580400 1.9189991682102000 2.586358746038250 2.6044799702057600 2.227311993727000 1.7566234674333400 3.3271668471869400 2.0833718046945700 2.3494404560689800 1.5792685091752000 2.3973838993761500 1.5711577550049600 1.552725440478500 1.968463042663160 1.9311618544643800 2.6174526204390300 2.2398571651529600 1.9123812622354400 1.758052753694320 1.6456030849382500 1.7920908981099600 2.119254577741320 2.0711348416321400 1.6731409974175400 2.8932901680775300 1.9923790609090300 2.0343427003489200 1.7017166073695000 3.1007390269051900 2.6535242040304200 2.631560623783630 2.6106640802594300 2.0745144320770500 2.484555483671630 3.541012444591360 2.4082854893514600 2.126833933035920 2.1503101414025300 2.742888490338670 1.8340055466088800 2.4738939019286300 1.7815464448171400 3.058892066884830 2.862069890699690 2.8873337936595000 1.6911491656650300 2.2737752701781600 2.4215677789508400 2.6979300340208100 1.4078650800449600 2.3864114395151000 2.4490762909394300 2.0863664204312600 2.325725990905180 2.212838295792970 2.1397105467926800 2.159756565034390 2.732750085620490 2.7098510644518800 2.1121693137208400 2.256267022705350 2.661546310075680 1.8110354077799700 2.2938999951269000 2.2759025340786500 2.5659561495743000 2.3167330413402600 3.66144597645651 2.969087433173350 2.6236858547369500 2.5506900953118600 3.1222684529283000 2.721009099618860 2.4718825228394100 1.8228493652015700 3.068806241614370 2.1426390559832000 3.049673404688200 2.4481777491092200 1.8612745616770500 2.08643015993787 1.892045445148770 2.4558976595019800 1.893599313889180 2.168157470803310 2.234651707102480 2.373526195105380 2.341675124558210 3.8032060969170100 3.303200121044960 2.576232478292620 2.455538239031700 2.372309162386370 2.633401362561320 2.0130813520503100 2.0784884209352700 2.0789715754917200 2.2382381303814900 3.420913954446930 1.7195916395734700 3.0590390415932400 2.4244319670812100 2.7658640614590100 2.247622291040570 2.8020627451101000 2.3018743524947300 1.2015378197940700 2.327484179085280 2.378861685604720 1.7502284336880600 2.068676185976610 2.142568526303840 3.3534830944565600 2.1889471788224500 2.596422570171800 3.801578342268980 1.7001495869943000 2.350722637419530 2.4391265187156200 2.7240024992731100 2.5637847584970600 3.0531116585152500 2.0858229631141900 2.200016728850700 2.675572704188710 2.409593722896870 3.6084074351483600 2.6521637153304400 2.317800534900300 2.003762560852290 2.3977566094106900 2.8394125995649900 2.091911739195310 2.276329625468230 3.185701578379670 1.470296111482720 2.9971410944853100 2.224053082108750 2.9779339835210000 2.896045053563540 2.589929789311800 2.5287653349941900 2.352019599309100 2.6908950354096300 3.038846164963 2.738837713461250 2.3442627263694700 1.944362151021850 3.020187589680300 2.136905752934000 2.500470288520030 2.368712562331440 4.407579984705310 1.7191529705220400 1.5936141401642200 2.1017531342643800 3.0339841259792700 1.8671842203975500 2.49439395403933 1.8294602671976600 2.089350235299220 2.8888341189909400 2.106939976458100 2.5918898239529100 2.3737527858324900 2.1889274247303400 1.4686741935083400 1.6233828858278800 1.804731848310070 2.1793492723133000 1.6934465420035400 2.2718302966483300 2.2240135437972600 1.7889726805308300 3.267113321716870 3.1151714713448700 2.3479677722364500 2.346694059235100 2.3131283555250600 1.8637138975825400 1.6693393649007600 1.7399828512463600 2.5713288759123300 2.3911537671555100 2.093293816811610 1.9210685971947200 2.1344073796667800 2.7974468036525300 2.337225250240990 2.6704999776942200 2.5668207100454400 1.896408838240150 2.385448248862070 1.9093404290764200 2.6410767992795100 1.9282142597466000 1.7150978771970600 2.1368073934363200 2.215078533954180 2.118512117030720 3.468019446970160 1.6508101814785900 2.750734255577340 3.3683366219754100 2.3605361614816500 2.1115134729041100 2.038177719500880 2.534580424589400 1.6395940852418100 2.101470770250980 2.1203401248929100 2.0255850942666900 2.004681478975650 2.236176016339320 2.161164291029910 2.0588913470188400 3.3447550338345800 2.0222800915809300 2.633838800967490 2.388304004249040 2.900902452636050 2.0038952811866800 2.255085256533770 1.9263119023676200 2.0771886475266100 2.30840648395862 2.4534985339952600 1.6496389994707500 3.2229735398142900 1.5768176185694400 2.101767424944970 2.3203727502979500 2.643977557091290 1.8886551488157800 2.245123425013850 2.3055348351151800 2.320271841448540 1.968025884082560 2.6483635808277000 2.2893736553591200 2.1881492637980700 3.032954117654210 2.049164917767970 3.1013451056262100 2.0925412977010100 2.184755252241340 2.6323713019826500 2.5134900938835500 2.605329221518210 2.306378218693650 2.50298570031602 3.115619107547680 1.5362631131764500 2.2344129965102900 2.4170019192480400 1.7173362651145000 2.2418994981283600 2.4507355411286000 1.3939222028209700 2.1463849417175700 1.972980759411710 2.3299938923544300 3.102096043861480 1.6728212027938300 2.5696389488518100 3.2100465721309000 2.752564078239290 3.1485872045182800 2.2686073118196400 2.3593836034081500 2.510586067175170 2.0605814025743800 1.9657478211329900 1.822132798554770 1.578137053395130 1.4101253666226900 1.203579798554330 1.8498282583967000 2.7945290614094500 1.840970851966440 2.0160694987361700 2.453353292558740 2.627218249547890 1.8964988829641200 2.6939478460451400 2.2775960496268000 2.355971452202400 2.1452904376966200 2.4538330775100600 2.553767540504030 2.1151449625720700 2.969186726598030 1.6430464302904400 2.8950936094029600 3.413173731398230 1.8514725332893000 1.767025447843840 2.947558707259660 1.7728594926273100 2.509587304420130 2.1489131098268900 1.704560690634770 2.5077744389531200 1.9296907701982200 2.5228745566246100 2.758553251919240 2.5504075531751600 2.474867550829910 2.263458121335940 2.5646337668909500 3.606277817327730 2.5212178264160900 2.136732498998100 2.6946849022914800 2.9877390344013400 2.3881188670735400 2.6200722844944200 2.6077524848898300 1.9541168984596200 2.5668379486916700 1.8782342459952200 1.851177789773900 2.5688278674856700 2.4078785278788100 2.0629192911469900 2.8533539315452200 2.199938696902400 3.376873523002420 3.172684948224920 1.8629126507401900 2.06607193371056 1.9466882089211200 1.8016725446550900 1.979642433193110 2.0589094930230100 2.340982874565760 2.618689875998700 1.6514232315404600 2.066755995824530 2.916506498399760 2.361634032668910 3.373085256808450 2.4303780466157400 2.0082211792428100 2.640857634879870 4.392319705276140 1.9465665140652700 2.8096313215460100 2.0101343484968700 2.3766239836286700 2.8176367316410600 2.0352378157395400 2.040562980115700 4.261462335679580
HST 0.16838619455355900 11.601310561072300 11.857114666840600 2.44543834297404 2.2512974309725000 15.706045247015600 9.12126375303805 4.6294315949497700 10.313413221539300 3.824482081867280 7.838277368913550 4.95401889919877 5.846505701662350 1.7843256281072800 8.824294240418660 6.21321104458248 7.447010481447580 1.2762667855059400 5.001677767741880 3.1858655971927400 7.489830646752860 9.82135722523558 2.9407934182353800 11.72005764938840 2.832077198179730 1.9925628590863200 10.497387660172700 4.191249047095650 6.240887559839160 4.43979260512791 6.851551234754630 6.933427443898210 2.8456311207216000 5.136150616172980 4.383171625020370 11.709782139075700 12.9243567997089 8.96587485820273 4.908560593426280 3.2794040631286800 3.5947963875740200 7.070219748472380 2.898590131290010 5.05220626034072 8.045517286169320 2.0348519600637300 9.431977769377280 6.155905952577320 6.395568570419430 8.773422972815830 2.9560648516897300 8.20004710913611 8.799900601967620 5.687692956518820 10.752185447755500 2.8210279862140300 4.68785890355788 5.5312446069406800 5.1497276632253300 5.345516255955810 5.54478716788315 3.148326071159220 3.1255883833242800 3.8488815442753900 6.681261116094330 5.862648592873350 5.308790716201580 2.403745860154340 4.890998390415610 5.337692850058720 7.550118592050270 6.768899796830750 9.055258180358120 4.057445005647760 2.7979411896872400 5.551941359384560 10.302386018988100 4.505761622395090 4.659294758088460 5.923871299594650 7.739564838706960 4.969384595882460 7.535999575028560 5.880096729723720 1.9134161354546100 6.609002908280640 3.5706914925156900 3.83909512630261 5.693296826677290 17.39755688542030 10.68672032131480 2.941233524414770 5.103883688638780 3.3831845188288800 3.7861676033454700 3.3546263895263900 5.347166823275900 9.49369351004866 3.644634787597930 9.100889313331420 2.6369016579856300 8.026738291177400 6.556841133118950 6.378018797714250 5.571793472990500 2.2659974420995600 9.285672896739510 3.5776110254620700 7.1837090497281600 9.424707238516180 10.470979310237500 4.395575272610180 5.808696980622740 5.791685979148900 5.21248126707175 7.4478676526418700 4.418739841201530 4.789797809806710 9.662038982494470 3.8017885091385400 4.423560790680270 4.026828869240360 5.281394524225040 2.5904948265219500 5.387451248278560 2.1517945513010000 3.916318982286710 3.0477087196520800 6.080233758691430 4.69547028500497 7.238078560505440 7.1346896208951500 5.02536601072128 7.538198633436820 6.379557952651850 4.6403574997566400 8.079778622358180 1.887175109570090 6.959460603380940 5.952407427744840 4.995411782981320 6.187464336233330 4.332687461388120 3.4786987694482300 9.270687370061020 6.880907643529290 2.8459039914578700 5.485458530820890 4.2711809057781700 3.441947922969430 6.905301799244430 9.789197914747100 5.726272999445450 4.435472290234710 1.727394515006210 8.055486352010620 5.732205844377710 3.790762940408260 5.3193810802486400 2.863156081651200 7.152720080248150 9.952473146168450 8.005384401849790 3.9637344093850100 8.758636572761490 3.5764015884627500 4.494035757318120 8.804542115696740 4.601271016457600 6.111821132996350 3.804569166100470 8.385866984530060 10.563653072267900 5.496418633454100 2.513679794699350 4.910292790409820 13.81052023974890 7.9160417376515700 7.140352477381230 3.895038096692290 5.333350277375410 4.1246049905464800 8.451206339049030 11.32131370348640 2.414004151841270 7.112755190960880 6.674453829286310 5.140271188874770 7.270512150822820 8.380792411327420 9.389838661676440 11.191596818270700 2.363888384176500 6.058309940867570 3.9810428128907800 3.8902024172371300 6.75722651227908 3.396063308964150 0.8284706130105640 3.6658923001277300 5.994692608337790 4.9381922272588800 11.675636087275800 2.6056683313218700 3.901236301050760 2.5894082075575500 7.612650635197380 3.1477517197382100 4.889774762103340 3.2122256173887700 5.585420193618550 6.047581362387360 3.860624988335040 7.078327028560340 5.539713355921000 9.502551334758600 6.132863531398720 9.426897149391040 3.271328296647950 7.263615051654730 4.556941451937570 9.544891214797460 6.279483684531920 6.928895935356720 1.6070804009969100 10.318501939141900 7.998264527616380 4.994297883409310 9.232905295370730 8.175957331117300 11.376688069601800 7.850112793899670 5.973913324483300 10.00312897114420 6.815407070150520 5.500185077497210 4.4358090505158200 2.5948801581588700 2.9882130165421200 3.3074178588304000 4.110631808717200 6.434731569764800 2.3430884626629800 4.795850041724080 5.119388005513010 7.675874114119340 8.107913739707140 1.7822068723102900 13.942734740171000 7.878350037668420 8.252732031015330 3.2279197117966300 4.204487955458560 6.700009648719490 8.198719899120070 9.326273391209590 4.472913858423200 9.908911638179500 4.548404146647290 8.138269314714200 6.106464225781860 1.7228877922227700 1.0879674081899200 2.4209267941866300 4.922926948551420 7.881773906568470 11.13109028557560 6.561612270165500 7.107796236558710 7.207173001667180 6.957679872923840 6.657341244815630 3.229577393624920 5.032610925406250 9.438552886957030 8.73914954202873 8.235438790260480 8.381343142254350 7.785278191542260 6.438787290849680 6.290529433245090 6.5965992125706000 2.009048509153860 6.926006756010970 6.77935680259955 5.770947138758830 6.832779028416510 8.87149741933269 6.673337382565630 7.52821921946588 4.491017699561360 5.41568311460569 4.263265318946920 4.76641530240927 7.711595876095590 4.455655083858830 5.965228626255080 8.043669667779340 2.584732820612630 5.559818533221020 5.566058681702420 7.060375569347530 9.37278929148019 11.159871471704200 5.396540855605410 7.504201614135130 1.6593288459643000 4.162513793576730 8.967574946979170 11.235990379412200 3.5709292331069100 4.164914866329520 7.120165347804880 9.238040978376430 6.8069209697044500 4.797088121251940 6.406826581545630 12.594978715596900 3.6584217734073000 8.469989108925180 6.751467901662820 4.714566742938770 6.761981014880450 5.928325217736510 8.694053946789910 3.186041931191810 7.464507714223230 7.669740483493440 9.675671295573010 7.421858960888580 5.286620485955080 7.688482196175950 4.537431989435620 2.584632988628770 4.2479320183720100 4.801156372216150 8.14109434768248 7.800329067052770 4.442033022474860 6.927119135443560 4.707823190780660 8.468537764166010 7.755513406741500 4.874406008710250 6.928431720574820 3.5183677784289800 2.4397466317800600 10.018147762715000 3.30930746706952 2.09789623547146 8.578117390825750 4.446073452178660 12.425023718474000 4.226842991679160 2.5611516619824700 3.9533631675864500 4.960119018625300 8.574307053817640 11.022676448073300 5.144649201560650 5.19080712355262 12.395409939844300 3.882203100546140 2.5207372747075000 3.8742193153658500 5.111028043209590 2.8136844050433900 6.121345213762940 6.519800866915630 4.187067683301570 2.236706095114620 11.237907595616100 4.912639137215010 6.863438243520770 9.41645135373895 3.963458360932320 4.580851653731610 3.8265415410767600 6.495301904612790 6.303663930091330 4.121576591685290 3.327026593531680 8.092118115601110 6.624537006995400 12.009253004979000 2.95687589326998 4.6986879928788800 3.167883798470090 6.683985670037310 5.994649039309840 3.563061769335910 2.3774729984677500 14.321780685055600 6.480594738312350 7.00614629501173 6.477646993726790 10.580186163714200 4.415966288216440 8.686065401434390 5.40696094793024 15.343239373096300 3.011751393098740 1.8845775630578400 4.9499320343816500 12.25336411813120 4.868704148393700 5.126596434920370 4.983449583316080 8.506983372872790 4.236853761445350 4.992434983264200 6.2105359680810900 5.701277455626650 4.820332896423900 9.909017921788240 2.9294292754754400 7.7457816728886800 8.56414063660642 5.555228166924410 7.221815306307920 2.8864830933882400 4.078443809186120 9.080172617484670 5.795418693572240 2.957872597175050 4.29266657290415 4.064161821244740 7.026427094994150 7.202348283233660 4.230145159954760 6.077089920722120 7.72986407896282 7.1513326174110800 11.915438779304300 7.8686450351714700 8.138804537651390 1.1454959869912300 8.5938958048342 2.232848924064610 4.773281854274980 2.1159941714691200 3.717325562602740 5.64059113574035 4.083304084636560 6.320128970243210 8.13678323311435 4.425549653340880 4.538407237667110 3.8303249264276500 2.753536218402280 16.86389979367380 6.251845197232880 5.570769585390450 6.979634696144080 0.36342572001167600 8.820236073224360 5.0979608074824200 8.612474180418420 2.802346414360870 4.067069425714520 6.014142640844890 5.7585676157706000 1.7970498014481200
LUV 0.21383129580474700 11.322953073259000 8.160964546088640 2.462401670147030 2.01396292102321 9.12126375303805 18.520944765913100 4.303309080018600 11.41048401750980 3.0941791622441000 8.497498554361150 4.888791428048580 6.348736932316660 1.7491913272148900 7.615493812516630 4.991452948495950 5.948636159646560 1.349261316308720 5.2243347670431100 3.678792737788260 8.024964477218850 10.004322308382800 3.6698006758497500 15.356507267893000 2.9434833865292800 1.9396151596603000 8.107920137892120 4.302341732622020 5.6646850355967100 4.355765536095860 7.208099206781620 6.655836063516840 3.113700956502830 4.209488538994850 4.276719862520290 10.684964562883900 17.263461395639800 8.751271071163460 3.4016043950114200 3.2340081873117200 2.959438422022730 7.130993841256980 3.2753856788218100 5.128029119897390 7.261041053332560 2.116392761135240 9.550904508447040 6.5098789343642 7.234551712313440 8.093908520194860 3.0411146899291100 7.19940375848694 9.071562699568640 4.27716876521378 11.141443848818200 3.238862078474870 4.839629316298480 5.863757960235230 5.367483880979070 5.550520516399260 4.7278878156284100 2.545048109598830 3.451307361923490 3.7566588586632400 6.212946262805160 5.3661218756206800 5.21652089064108 1.7950318379134000 5.394688114367390 4.85238494307783 7.2841900393902000 5.868934375636520 8.327066144576680 3.9554502263443200 2.453031431483650 4.816769326191690 7.859418864023400 4.808191741491110 5.661918525317540 6.2816797506232900 7.402471377726260 5.391006411768790 7.164100979486650 4.53198104586035 1.6666495534751200 6.4184606604180500 3.5028933203399400 4.639215298903020 5.262208600990250 16.779070107725800 6.903093823836630 2.774416199957480 4.5514917720147200 3.425021284817970 3.1933827932083700 2.6970371644765200 4.695257711003760 6.503593037496380 4.07629779859304 8.091373442817050 3.786303655839210 7.065924621719160 6.467615528717500 5.6147695537523700 5.542731041872550 1.96628797815754 7.425641304184140 3.0080880774801400 7.807196811670510 9.976411474338370 9.240294447963580 3.1606610107809800 6.534958116597550 6.562397646079100 4.494641709132060 7.700720960144900 3.263124159278280 4.406760885759060 10.142221933574000 3.5377606755097300 4.675233172109080 3.515022306996510 5.044056283289510 1.8535316390800400 5.3568258250576300 1.9417238228833200 4.576940722689450 3.559276679252200 5.49574680348841 4.407858450340400 7.384060571464000 7.015910127230540 4.0730786806364900 6.726462769407470 6.630103081103830 4.683747573283830 7.9800406171810300 2.2240567055603700 6.754832322982420 6.460527220593060 5.0849342323382900 5.812057122749790 5.683915563338630 3.5868628337779900 9.27333966282689 6.281695310196590 3.5067030883101600 4.375857926691540 4.458128618859220 2.924846319532310 6.834240934892490 9.260683016160490 6.427924956749040 4.610261535420700 3.1588162078701000 7.337776288392120 6.825969009476580 4.072044668466610 5.088597026570010 2.727725108956730 6.42403612290683 8.491292237233050 7.403722282984680 4.718974035318440 8.599326410580320 3.602413292296670 4.763464882257420 6.648346631808030 4.570159100827380 5.142422802402920 3.510719118958750 6.72355861327057 9.914978996791510 5.894683812611980 3.492751054286150 5.220156891887430 11.943788204826900 7.719692879610330 5.850133260955260 2.9561720912930300 6.076251207312690 5.031954829611860 7.67575533213387 11.486069944492600 1.9351333106664800 7.213844361214010 6.785938082738810 4.774803203313660 6.5096366307798900 5.897353182398080 8.803348937726830 10.31824972533930 3.864971292229470 6.399015599824410 4.288973354260290 3.4284076609255600 6.207009900132890 3.6689702234454600 0.9723945008032540 3.9765200925406700 5.603958960235820 4.982302671601300 9.943608358739180 2.9225212333852300 4.813311995038210 1.9115076608050300 9.440195951507990 3.2522609991753800 5.972888250394450 3.4199721677479100 5.366575618456510 6.485718509790940 3.750633367805970 6.957175135204680 5.4727914851932700 6.089998599197610 6.5428706548456700 9.054680259037100 3.567379436967520 7.966633302015820 3.1442615637852300 9.013347995044800 6.121361642073160 7.4141827943941900 1.3355185163597900 10.969558272145800 8.6686656862772 5.549127593816720 9.171146395462980 8.651114673062460 8.7060024727626 8.834723154570960 6.626174849141220 9.469444888300220 6.6781573702229900 4.286559947637590 3.8921325921937500 2.271102493062540 3.9382676025197500 2.6736097925577200 4.035764491541760 6.17085020703101 2.622046672913180 4.111614404564800 5.242933389536560 7.762696568424830 7.71034139502406 1.2711367443513000 10.520012142864100 7.630116579357530 9.451483476222030 2.818768465087800 4.507325447218970 5.445670558220320 8.251993552289160 6.68720895960815 4.273435068825660 7.434734318908230 4.668264242342200 8.467819149611580 5.780920383425170 1.1476726343414900 1.9997472310025800 3.2189711896976100 4.59631349785174 7.54086689448299 9.123039618179740 7.084856052108850 5.793018145475130 7.12097347702508 7.000384244346560 6.83375013614262 3.5452487867978700 4.88939726207612 9.293068949293330 7.804665384133660 6.597538683937100 7.908448038719560 8.15854525985712 5.413340959028390 4.967922127263540 5.806854385605340 3.0964846395258000 6.276285387154460 7.201385025748900 5.390618875008540 4.498065329543210 8.477164349658910 6.662858819134230 6.850586457966710 4.2895093589515500 5.215603483047290 3.1295086344096900 5.559897192341360 8.320011979893530 4.669391075895900 5.960486550798410 7.51160267756597 3.138349058387660 4.989097698707720 6.218015490314520 6.6642166508832200 9.121304797323360 11.140301277937700 3.8411646594746700 7.211961454598930 1.4882476933180000 3.075243356620020 8.767499679840130 12.129991110741200 3.1566267525397700 3.746745644707160 6.654563330423190 8.37894547502883 7.035107707066030 4.947645133493700 6.718960476327710 10.499114080346600 3.143739222529930 9.131787152875730 6.131181318045580 5.50266026021794 6.3439919640690400 6.009610483469320 8.005029930076760 4.657414462542640 8.047695137283650 8.287114514922830 8.069182690967250 7.794498571516910 5.03565244139083 7.503041973699110 4.628799206110070 2.061633520217350 5.170575914653970 5.02672160103691 7.853731273068350 6.7414480025337800 4.18805517992231 7.874882943236710 4.110707021852510 8.419038518663490 7.294991089030590 4.802383969221680 7.1928249191465100 3.1391800253496000 3.2956389841232700 9.540028468193140 3.3809448547861100 2.2019270503841100 8.576556866444260 4.1135639419438800 7.659582155607890 3.8056717363850400 3.0449938361542100 4.299654663038290 5.181922962397550 7.885965475470700 9.889701097052820 5.785027326021360 4.433537465713910 9.821786839166600 4.209335251948390 3.1229048899435600 5.084868356507960 4.93212707962284 3.5421148464755100 6.102419480700540 6.528597876581410 4.269665220705010 1.4286919042969300 8.337619717785140 5.584930921263330 7.338826059383100 8.308564317047060 4.351194156575320 4.762345501648320 3.5402193500610100 5.412942516785530 6.7403170744403900 3.4359967544207300 3.7319671629761700 7.78069233347332 6.243441085650330 10.610003158360300 2.871866398385290 4.947601888306260 3.1303228616769800 6.701974605525830 6.020028709039040 2.561133788176820 1.305809761742750 18.891508254063500 6.404240693589690 6.42268873388231 7.228474992732160 8.121510078577560 3.461787217798830 8.692040799437840 6.169866708556000 14.59004113469870 2.9198042041227400 2.0887517772443500 5.694299742279390 11.646128040606400 5.418629541837150 4.823605525190910 5.409163392677150 6.321120707241160 4.37863936477252 4.1812737159296400 6.487829301243290 5.8516272831347700 4.545081293680170 10.915062660363200 2.5675118326260000 7.271229508884120 8.474094474313910 5.690384083975220 6.760289732888500 3.006729242898580 3.748773569324780 9.142058327201490 4.598291528383770 4.825573737571440 2.623631735967240 4.29288597360933 7.861940217754260 7.474777373435150 4.783669078710520 5.8170931524688700 6.335857894796280 7.074617852016210 16.78927162043000 7.807201454043800 8.150626094854390 1.208095354004500 7.896329756869430 0.7079916427757190 4.08183103968439 1.942959832282240 3.6201548926070900 5.719044238187220 3.6790341200663100 6.640086410111660 8.56642550455551 4.611460647963870 3.705357774736170 3.037710286690090 2.817411918995780 16.121523544686100 4.550909611732720 5.119868718382010 6.293692043062310 0.4445819933464420 8.538584952020340 4.8961466763676300 9.117833154186500 2.285339028875310 4.042816591842160 5.489327777789030 5.827351792034960 1.7600982761168100
MMC 0.2614857014706890 6.545987517385810 5.611922963383110 2.5779226698425900 2.2191211781019000 4.6294315949497700 4.303309080018600 5.755455949934700 6.185343253169940 3.307800425489670 6.942318052379590 3.868303428552440 3.380551295631630 2.0466370252344400 5.287928448874140 3.34365374015205 4.21242038791093 1.3343596751378800 3.5139673409714400 2.51611794680632 4.648026194164710 4.792136285628140 3.413167409120030 5.439901202058810 3.214854162754520 2.354322978405410 5.303010542813680 3.1850245238396000 4.194493464747210 3.7836482858972300 4.676968229049660 4.081663227291480 3.0163671877241900 3.076411645874070 3.8114310441119900 5.939022628609430 6.007418856088860 5.118984805385970 2.728175724247110 3.180620644518460 2.23062840429559 3.8307177550094700 3.1289562496642200 4.691749941364650 4.059867238306440 2.137474652410780 5.499297555195260 4.254048378522170 4.137936962965270 4.0111274983967000 3.0873370555535800 6.256459641011640 4.28277472906971 3.520018278228870 5.94757437846013 2.6967490586388800 4.188552266016000 3.8024817958999600 3.371231062499020 4.445191405486350 3.6279758833586500 2.2349188488979600 3.1179769410803200 3.622836694927730 3.9551600968490700 3.8621969913637200 4.983407600501160 2.859278042568270 5.090247677616000 4.115176709267190 4.483912002908750 3.8361190808520400 5.306492749107910 2.5627313552384400 2.5696899515384900 4.084182141105290 4.376303642749570 2.913664041742600 3.395823025241730 4.140434751555720 4.677555653270340 3.8553981981950200 4.690875802199100 3.7704254201805600 2.3178433292143400 3.489549397706950 3.790130906253180 3.2282354972127700 3.650243587923030 7.70962189696241 4.396572555218410 2.69196909611942 3.5444077888737300 3.0852100168357000 2.752221361148470 3.686108580195990 4.039933444673700 4.367140140437500 3.152999158833050 5.659201531663980 2.7696658270390200 4.193158252835690 3.6733340570931100 4.4578232388633100 4.517832358531220 2.2250610454363500 4.215313139631570 2.974000527148960 4.266538696059170 6.131208476392400 5.276961858766760 2.8900488526828800 4.3205722307180900 3.871157129488150 3.388512107246430 4.61104630764225 3.9852674432972100 3.8865926927505900 5.18765927169092 3.5187069652666900 3.7903794176682200 3.669349171709260 3.843595063595550 2.3378399786131800 3.823709717582290 2.2638680782230400 4.211163506295720 3.1882587297432600 3.86686608787023 3.949126936372610 4.360054708570380 4.040413205527930 3.3389712968205600 4.535221670811440 4.263610779521380 5.490048318147780 3.8797096239514800 2.253217497033020 4.540766752097920 4.31951523815595 3.8583276846941900 3.307251111355790 3.503799702512700 2.9119124685471100 5.6586398977947500 4.282465931152750 2.7878291359920100 3.678047549615500 3.808941383525550 2.6761659415350500 4.706584933734960 5.464064119186300 4.949734382884350 3.2725293199800100 1.9905198373046300 4.3085275445206200 3.1323080868017800 3.465859032217520 3.56154159195793 2.7437072868972900 4.349538809198760 4.191289975035610 5.6249247102021 3.3273388860382000 5.325812331062530 3.8737457842148200 3.9953540656133600 4.5929741588102600 3.8251630628854200 4.874410354975880 3.3239752397546600 4.125139209960690 5.549380529308920 3.885443490715390 3.3293772434568500 3.437282692213810 7.439168893725610 4.1924915512957900 5.325188543543830 2.7505237661008500 3.932706751821970 3.6350207541939600 4.266834249927630 6.9337108512009500 2.503448007109240 3.6531180198347900 4.718740345593970 3.341370459546120 4.77256674807368 3.6989345872038000 4.953888282850520 5.933145848612790 2.395190481940580 4.169168352413540 4.449344783513180 3.2297510226047800 4.126634720119560 3.296685317523530 1.406159948253180 3.6335038305609000 4.600247341829670 3.5849159355845300 5.401064512528190 2.6299953218390100 3.2327551114937800 2.54444412858297 5.810483709980930 2.518332975200180 4.176856484303130 2.394365701762570 4.532533093942690 4.365066777288070 3.2706260677203100 4.6384466008120800 3.763869787057820 3.74585961917727 3.8467848369841100 5.365228042990980 3.493178232164260 4.858203825284790 3.544188259696460 4.756183238292990 4.217210449195830 4.53963892605875 1.539683030693380 6.085611542237930 5.076259120104440 4.080002116254830 4.748875212132800 4.535911277162850 6.36631936711687 4.60775944979791 4.603326731545180 5.1322461359044800 4.405942477037980 3.6338423625520300 3.229432163925100 2.7807364535740900 4.607861416621920 2.590816497008460 3.910891669579750 4.554749988484640 2.443372840722170 3.8332910886411600 3.0421181640077400 4.371331477582380 5.229478118878000 2.042117105595910 7.534170772003450 4.865144963842160 5.325335659723260 2.5233440488724200 3.8569745196134100 4.536246508692770 5.089754383044030 4.45037389277841 4.642835453449910 4.398348395150450 3.3571352882642600 5.385183167683350 4.075167530356800 1.7443844449420600 1.9274720154187600 2.595637768742140 2.9047918818934900 4.822940389811710 5.236020056834260 4.140190544937900 4.315840317492660 3.894687490923330 4.537920126499540 4.69443799159276 3.0869325643763000 3.7257491235380600 4.915014659615180 4.384136751311200 3.997942446113660 4.0882824311474 4.453651898080700 4.108117432759670 3.0377493130596400 4.643607499228700 2.0716879404646800 4.233030564606700 4.795432373580030 4.246506558151320 3.594679088560080 4.614791409208690 3.4470826946400100 4.020923298079930 4.2169744308382300 3.248019370801830 3.0640747737002200 3.723891680608610 4.831873164757620 3.7248373293731000 4.022756908859790 4.487464098565540 2.9357923653139 4.1466488682032700 3.9433829564095300 3.953391713030040 4.237163929943840 5.926085021520570 3.2486292291400500 4.415692267448510 1.9065434474977800 2.6056376944710900 4.381713389778210 6.052756109952360 3.459245895436500 3.198082945292150 3.712004256358350 4.005603452790730 5.041871788484250 3.3837948679602200 3.9671131358949200 5.793649375324480 3.2709881713243200 4.562493511088240 3.906766277595320 3.4494926459461000 4.6680092875985000 4.190158499585650 5.053304149044800 3.589162448257410 4.499527852449870 4.962560931144140 4.5363580730129400 4.5707035050661700 3.8078009527869600 4.379135455492790 4.1772813673291300 1.8659737710672000 3.789294628706560 3.580885709958960 3.8488371014879300 4.1567732908413800 3.5433519265194200 4.956521079920800 4.115798710244220 5.0510497561409800 3.604344660975670 3.4668206656218100 4.733095735218380 2.6530522178885100 3.2752680412143500 5.077489943828190 2.6053832434520500 2.856663412387940 3.697846094618790 2.813959188274040 6.288569036790750 2.884903664109020 2.970110413937410 3.5913122871883700 4.2531825250647400 5.975000087969210 4.68616552614806 3.8427936753590000 3.4281900210812600 6.130695729370880 3.253108060134250 3.040224926912780 3.8237000076854300 3.404462031359890 2.7884538348152300 4.3865555377742200 3.6889886064303800 3.819796928211740 1.8815617407852600 6.534825247128700 4.045040778408830 4.369100859358290 4.402553082579010 4.089974560787040 3.25145554634164 2.684327032593570 4.347105083878640 4.88285698145086 3.4403035659478300 3.0972829133799800 4.967160187319900 4.431194395411610 5.77841825209946 2.6599592953752700 3.2073125730947900 2.9879372848444700 4.176861237129460 4.229371297538880 2.5954718505191500 1.8872196545275400 6.286433541370190 4.485240927065340 4.263157585496840 4.911241186389460 6.8299284296607 2.671120592375290 5.176772760173580 4.00305876758162 7.768683630310510 2.356435007169190 2.407346543703830 3.681112322576840 6.003091501251640 4.3894029030367800 3.4569596582361500 3.136039874025120 4.4406067430373 3.9327381129080400 3.337674638464320 4.033128907626070 4.054007530258840 3.9361115316248800 5.481225665675680 2.70766353152892 4.875690328092920 4.489404228022280 3.7988501029475000 4.381793149475600 2.7496034570495900 4.459711832398880 5.262914477618300 3.53149871423413 2.937378917019600 2.8977523014348500 3.452085592470640 4.525381483042530 4.675968338506310 3.717764276919020 4.168613501266410 4.235084490081810 5.2161144532026400 5.828454648806180 5.528151398978240 4.651601650039120 1.5305885783197100 4.549458148909800 2.502135084766830 3.311869257600400 2.1072354219901100 3.4651912003653200 3.6751968595570000 3.5734539481969200 4.722865977779510 5.484221691221570 3.7829443525533100 3.253362587913790 2.9605189668929300 2.1388397544026000 7.724383852213440 3.71122988214831 3.6798713254816900 3.8414461222583400 1.1617756165421300 5.013173441909940 2.695035802238970 5.395064577465940 2.3222521433797200 3.8641738761575800 3.4203916560908100 3.716240412515540 1.6116363128978000
BA 0.245482215330994 15.774890278547500 12.794990592479200 3.8907739175064400 3.1732121233361200 10.313413221539300 11.41048401750980 6.185343253169940 23.33852285211510 5.1696144668606000 11.869125056380600 7.920029900696860 8.401763774215780 2.558517940631460 11.139656449601400 7.701183261101970 9.172059495994000 1.2395196160684800 6.711144222288100 4.317554639405720 9.400794803394500 11.724733513639500 4.834236841702590 14.027457717906600 4.200332197875240 3.022658227002100 13.279928017298300 4.457165676263440 7.478376581063870 6.193275692584530 7.935573412130390 9.213352476431460 4.053696542226780 6.097211219080040 5.513449146235450 12.932202459877000 15.374705692187400 11.09615049232500 3.3176347043638900 4.486563807143330 4.18528546593545 8.459045769052450 4.360337964940970 6.40940650531798 9.357937536053010 3.163320377433900 11.576288652896400 7.468467412105520 7.275367306558520 9.716581810143830 3.924220370106520 9.91064548684567 10.057651251020200 7.26012154808159 14.282357817839600 4.524051410100660 7.283997599027400 6.0639852076226000 5.854271827426720 7.767866036773240 7.137729284039860 2.548714292879620 5.937100986920640 5.375129111209140 7.030261056539490 7.6348686989668000 8.480542409804510 4.4586440234105800 7.442330908731320 6.484663932454260 9.128745173890610 8.386376134335750 11.265728219731900 4.6914438003030900 3.7138337696694800 6.580615885359120 10.070622061345100 5.3937566768613800 5.645696074348520 6.48511212739124 8.809477015515990 7.363719559842060 9.593265502527970 5.824244052962320 2.49125295527599 7.396493506017570 5.315328770889020 4.519333493893770 6.531376475337860 19.91739529017380 9.76273883887792 3.0824989448476200 6.227508221941770 4.857872436782640 4.635617088578840 5.089989062031850 7.309275537819180 10.157508997289300 4.863907965273190 11.222673075390400 4.042700561227080 9.707743305416690 7.375428757923160 8.081777833235660 7.463024593064940 2.7399317760092900 10.909536318719300 4.565986137540290 10.236997118773400 11.691502119518500 12.866018737471200 5.278696412792930 8.498059377058670 7.470812128076490 6.174699689252050 9.59673034795407 5.278426091343090 5.825981574276300 12.285106245880900 4.4279364132872 6.293854721152220 4.397000464506600 6.141534947677560 3.7457367530121900 6.731197873949440 3.0389236306289100 6.154930093718940 5.366036910434060 7.145567462452910 4.57559705662004 8.388919767417040 8.336502961068040 5.995009700940440 9.307259597571860 7.915730560811200 6.411373888292870 9.853105429272110 2.925170811345720 8.734629933673410 7.989172336302480 6.591641649872490 7.514344316028670 4.815674383168730 4.079711065905890 11.3774558213245 8.164044597984070 3.8902615688207100 6.27080857847224 5.761285672200190 5.343305643643140 8.940220620560810 11.731117786405700 8.614342541312580 5.759950922030170 2.538577199105890 9.553534566845090 7.166882647052460 5.1793361567260100 6.99741544660447 4.261701552466140 7.852358184731630 11.185818135184800 9.70522705695964 5.971991870482350 10.855433186406000 5.554767718049640 7.261873589782410 9.354970996879160 6.8677877791801700 8.052193131583360 4.456052674196140 8.862931895485470 12.128967213803200 5.779545528822120 4.247780816784470 6.237981939060850 16.378997886864900 10.174467703473800 10.397711775920800 4.771289669603230 7.056264316537800 6.591332963100720 9.773441340483050 15.218158474431600 3.892917549455570 8.5065643948704 8.782465279716510 5.577340044369370 8.58623898364404 9.207765455357020 11.218227373749000 14.523987929814700 2.48888231846265 8.372212386688310 6.293210360327660 4.912372587944230 7.973470840010310 5.4948346909645800 0.5308207984526780 5.82869377698736 7.764593526766400 6.723800024051590 14.82752900905410 3.4195528549322500 5.051112547653480 3.319780416705120 11.510597834483600 5.207962242882450 6.813422960509150 4.764087778587760 7.2976213216765000 7.656124836169390 4.74119822977031 10.124002864115300 7.75126489820803 11.755966010054200 7.639042243726950 11.7177404409771 4.2884115036389800 9.849930176565640 5.031038689407980 11.545340050967100 9.007673381065990 8.945222699159670 2.3311874220269500 12.527235396666700 11.059739135722300 7.252168735559510 11.440838871429000 11.044990311727400 14.410834384969800 9.71613882571727 7.761025077402420 12.011030316503000 9.881368113778150 6.982952117277170 5.01086287838834 3.5743100350518800 7.912774778599240 4.38872991355651 5.714077973803470 7.983416952092240 3.62720455629759 5.647449864667630 6.302142778040770 9.694345025131510 9.538299595860710 3.104520843612000 16.741021628769100 9.507448259402950 10.582613084705800 4.048991792521150 6.309961284908410 7.016378414656560 9.974440346404030 11.328795354164700 6.596193476881660 9.648823613279330 5.915591371120190 10.622951387216000 7.554120446803820 1.9776779246373600 1.9766869109118500 4.232071444402890 6.82276908986903 10.253108941378600 13.112643915419800 8.15578215889312 8.973879804658940 8.271305278864680 9.161580997889730 9.017636804205550 5.4948340635956300 6.855377252151110 11.679828416485700 10.548984378525900 8.648083460783650 9.3445843076792 9.560651295084420 7.674316998213500 7.0765672468691100 7.2999312176742300 2.939143825129950 8.255654312387390 9.077443148774820 7.889637936705650 4.16326411496701 9.705207568687070 8.262367725124640 9.510160263276130 6.34758997100508 6.000179593016490 4.945934843197910 7.437536806298860 9.83411594552115 6.0001419481737700 7.890391873593090 9.778007587787040 5.261581126425470 6.649007703473170 8.091006389841060 7.920229338209530 10.790040021316600 13.032851480424900 5.747834235416430 9.11416577855044 2.488227102563370 4.677452132296630 10.146138390717800 14.370208082853300 4.791193978179810 5.558490522603190 9.276425864095950 10.34107880432520 10.239530653353200 6.125972038292270 8.563208456272390 11.919458478015500 4.620000531139220 9.907503020604670 7.923108254991240 5.833541806249850 8.993853061000980 7.223651477072110 9.84187008100643 4.5280124586218200 9.285707508682720 10.585937786886700 10.773976772061600 9.716819323320730 6.969574804086010 9.812412248970050 6.443090494764410 2.548943143777230 7.281812854849110 6.314108074905610 11.314458087251400 10.311766917630400 5.837599088196800 8.6609837449023 6.618988851705540 10.508847199845200 8.756931119648230 6.434363642855370 8.944141866188120 4.340433255142360 4.070309278024500 11.740954830679600 4.73179721454644 4.548624508701660 10.131857605711900 6.047359627441550 13.73431569757880 6.345068554391750 4.3418901553927100 4.059382078970980 7.2551781700736100 10.862752035339800 13.354608417137400 7.587990890459930 6.319217158113960 15.501011340524600 5.0573989058181 4.315769209832630 6.076986131871530 5.669708928250020 4.3541796635458500 7.973736223657470 8.350699561308620 5.764957663427730 3.0275397286912700 13.487482792518500 6.34153003557628 7.970221559096800 10.955001091937300 6.8873583976867200 5.932273178430930 5.1222982781804100 5.179671367168370 8.124534864734270 5.328780668712710 4.1854505607412300 10.421891674869500 8.296575730825090 14.384702606506900 3.273663086175880 5.669888234011280 4.596657745516720 7.65932402843822 8.137996937487090 4.26194968615468 2.0430620280646500 17.952483635866900 8.515521582678290 7.917917457519160 9.048201085644160 11.020106323360200 5.61774141131192 10.242739044291000 6.672204795129880 19.54711495150300 3.680489216330460 2.6815959524990000 7.098154470323710 13.304447887484600 6.270707368806150 6.753227607991310 5.981872304297880 9.857773810240200 6.547040596787370 6.048618816184810 7.526418799746910 7.546823748163880 6.406285235845130 13.8863575479667 4.630139454589440 10.346085329849600 9.851599042540410 7.8174641176325200 9.399721743693060 4.41779124496414 5.980588419373280 11.504634679634300 6.351194310511530 3.6790446624455200 5.213587219241530 5.495179055304520 8.249965000551900 10.410946008486100 6.333724160751190 7.325441778423750 7.547821739311590 8.87339718106489 14.96711728109120 10.649367425729500 10.33970600496700 1.5399086501211500 11.520154484914900 3.304954673095950 5.991131194829600 2.749860378142360 4.458590788218820 6.859811044950770 5.086470578000690 7.905668626576610 11.138879839617400 6.287577885742620 5.352963853353670 3.955052977090810 2.776150735840490 19.096240013589600 6.368878050548470 7.524366861091070 7.980844322912360 0.8755227624608210 10.552297619194700 7.456671390481800 12.847930585853800 3.3003987078954000 6.502541808711700 7.47692330269317 7.085061849887360 2.4664372330429000
VRSK 0.23572278313527000 6.146143955452750 4.3199372299617700 2.662695988475390 2.048474898034720 3.824482081867280 3.0941791622441000 3.307800425489670 5.1696144668606000 7.522967961086360 6.585337670253510 3.4994990875603 2.919945204281930 2.3001582294075300 4.712565541094120 2.108882769180250 5.044119803823380 1.6703700398150500 2.481245292573120 2.7152835283769700 3.8175879849201200 3.6811760313980500 2.6349321889306800 4.717768253107700 3.9042966517069000 1.9605499693958000 4.97626000788093 2.624760678378340 3.48643976612095 3.679822480294180 4.630017578499450 3.516885808146280 2.325775328378080 3.2057640287565300 2.85441166873731 5.451218806714620 4.376579914709060 4.796070310701420 1.7012734952255000 2.875851654167860 2.1059098250579400 3.3198974676557100 3.37439967913458 3.392442331053720 2.8059914840576300 2.070535666742890 5.252398407663460 3.4339957179535500 3.695449226515300 3.57524264789637 3.6376342436082400 6.402889671221220 3.070878109049520 3.19191937602675 4.8011449606095900 2.3234819372361100 4.139263835193670 3.0372342056016900 2.893394864268950 4.234583052462560 3.8751299919128600 2.2755139240047400 2.6197937761069500 2.4598201232299100 2.9613099419220900 4.0821264764173000 6.404567749209820 2.741086176463240 5.401445098919200 4.119912339644030 4.263489327872780 3.6196245947358400 3.7374283924037500 3.749392798843680 2.116865738083310 5.039591846406380 3.428299935180190 2.090297867999260 2.8756983786249500 3.869877888565690 4.73927608541873 3.8368542267476200 4.614106925987580 3.4936356300612300 2.0716633641192500 2.501532253091260 4.174303546220030 2.5408495618696700 2.4861869030464100 5.3391598904996700 3.0554819327058200 2.9074022514974000 2.9566551460587100 3.0384542318113400 2.4328533812356700 3.036527524129430 3.5936847709860600 3.319338985367220 2.407522743025370 5.082668681141030 2.143572657659760 2.7257626097788400 2.8338233258487800 4.390942852836640 3.851010480834870 1.9001594410106100 4.344094973578440 3.2085422602088400 5.362749948846190 4.385609246938580 4.8714892837953500 2.5715984952373600 3.4188574561028100 3.186847424580490 3.475736855259360 3.7723618307272600 4.335011208169220 4.87168967980729 4.006054924655150 3.187465234125120 3.5136460783678400 3.712290344433450 2.9474095357313300 2.0885681622689600 2.8534930855425800 2.0908253548892200 4.619842571144730 3.335141079213790 3.77843121391921 2.966333977075240 3.7444117277097800 3.053531598568530 3.2810930008914400 4.407011277825630 4.227600348705010 3.413040968864640 4.111546814407680 1.901838454684330 3.9182272285325000 3.835775835696900 4.403570807987290 3.7290792183558600 3.352184210629640 2.5670792291358700 4.422526247200660 3.8468739355070600 2.2415383646340000 4.414136123817490 3.351169901880880 2.3403529976956300 3.756295301717300 4.505170692341370 4.185537223502000 2.401107986988840 1.7468498700486100 3.761210038659970 3.532956361626700 3.0604683011982100 3.4109774961832800 2.6669823301571900 4.017068572956750 2.6824678087113900 4.884765964528250 4.001340413551340 4.527277922710980 3.9018402971788600 3.8470101910296900 4.437783772186310 2.9432377254634800 5.025310274384390 2.783020595387300 3.1550737091262200 4.064292874930090 3.636142284505130 3.2599819302333800 2.4222087912767300 5.4007784518657100 2.873599733157370 5.212346206606140 2.5235789969429500 3.204579091307060 3.6727944174742300 3.257722629850700 6.1538735561354300 2.382448615007670 2.797088678678440 3.8896162831718700 2.9037657162625500 4.117822400339430 3.38621002581677 4.3193522749491500 4.701139166803230 2.1538857236493600 4.0432095222425700 3.1156390587185800 2.9373308932838900 3.829553112810750 3.295436112861210 1.3967345181108200 3.2103508793833600 4.928072889734220 3.68893150333627 4.5349771556212300 2.2569744438293500 3.101216199438650 2.336400223613260 4.497498421168400 2.198383183253690 4.493839884954430 1.7920325872429900 5.27174148102684 2.640493248514690 3.235182996115320 4.731881175243300 4.075167608269820 2.9720266506211500 3.8328791084857700 4.226888496175940 3.02755061263431 3.6369817330342900 4.948648805196850 3.7989492657766000 3.3083483977440200 5.345912399667840 1.6780015667925100 4.128878131046350 5.261807554836540 2.9010069411114600 3.857867965875130 3.855438167265910 5.416063406819720 3.7431861955091100 3.842081162378600 3.9064462695787900 4.456234979150700 3.0747639461745100 2.2824800104352900 3.006601373303510 5.364804937924980 2.471828079081800 4.259569117582040 3.0565736190531500 1.9113317598203700 3.3340133371846900 2.580076985181450 3.639224778306690 5.328807308610810 1.990763011707340 6.940459160440840 3.4366645957602000 4.123547063577480 2.3875793655823000 4.948384085527030 2.696340300917850 4.784836005011300 3.86793543603074 3.460868011373950 3.7105034791559800 2.572833128783590 4.717170506182160 4.819485128133810 1.859742336198900 1.7567975012572000 2.8158004799867300 2.94023386772339 5.310036957016880 3.6712394970349800 3.50283533483545 3.236785802717270 3.0630033310276500 4.262509219079750 4.277248578702480 2.9695350924641800 2.7990097157140800 4.184224437246550 3.1824424807854300 3.2670003553338900 2.865394692178140 3.9360869752292800 4.101838328165820 3.6858149131807300 4.697334110370230 1.4873618009831500 4.3770519484118500 4.401635519304850 4.150820289631370 2.468373257385560 3.8742660843855900 2.7478831440726200 3.4759501543567700 4.6550040675926400 2.476254514083790 2.5352317467156700 3.0623218260271600 4.881565866553330 3.421047200643680 3.3067383336760500 3.1762876250372200 2.5021073310608500 3.6045257516750400 3.125857092025100 3.447200595390460 3.148708956946540 5.488490362079770 3.3711048669537200 4.000379645603210 1.79701710918239 2.3534402728880400 3.5348639524760400 5.083755824882180 3.3431699385057800 2.5973126945484500 3.54648345912573 3.370275180074110 4.772804786277030 3.0496303952811200 4.501511994094910 3.9124147633154000 4.037894261502570 4.184358165218410 3.001272222020630 2.4141651214199100 4.582628197922740 3.0610938301328500 4.462189965691130 2.9443726992525300 3.4029152003226500 3.629363029998450 3.8282160002710500 3.4738475144497400 3.8127759165710600 3.8768022277487500 4.5753839812118600 3.0980849988931200 2.7312094295487300 3.446143445421740 2.8574881169698500 3.3639338970681400 2.6780342324382800 4.844053881809250 4.467048339775140 4.040302174917010 2.390818971709740 3.529745421999630 3.7399407089319700 2.178125679503680 3.4158134275758500 3.9035518921527800 3.095589282785980 2.8701116088832300 2.7946288626825600 2.2987375823124800 4.697874613276580 2.629573365367810 2.094305514322850 3.429378235322460 3.41006389148772 5.900020697799850 4.499910864820450 4.1065171193742200 3.193669303474880 5.502208331623070 1.9496968201173200 2.625906449602400 3.0805897021248600 2.7166956937359900 2.767567882775940 3.7504293029820200 3.037814409308610 4.378663537996810 1.1561981217159400 5.802347674752260 3.853210890663280 3.230603156082980 3.6535843267075300 3.9662150488038 2.4599999049672500 1.8906241229101100 4.376327095166990 6.269027132376740 3.438884542381350 2.744578054543010 4.222637367581880 4.228737257798900 6.282775817021100 2.897131256793860 2.651045598328050 3.326229615732900 3.142769031356790 3.1714683127502800 2.512206968846730 1.701770093109180 4.987462498871300 4.177089525602520 4.041019736601000 3.2814507351164200 10.159190748358200 2.817301119912400 4.144502258621670 2.9632102099304100 7.394799379053090 3.0645166457293900 2.3621853128733800 3.6923147250339900 5.617341597556950 5.087088494320600 2.7162581741489200 3.026563686961800 3.8667961185273 3.8474859281571800 3.3660804989294000 3.229458688751970 3.815101562538510 2.9934290292812600 4.618973470756160 2.336701371028320 3.741232468067490 3.4333409490437500 3.887848827155680 5.1038698471205000 3.1483214686352400 3.479551088969780 4.714792666401380 3.6937960319750300 2.5896505611255100 2.8419235805137900 3.2571519270878900 3.5508132310291200 3.254415569267990 4.023542939878370 5.464171795636350 4.594443391363310 4.9150485810379000 4.9099795154384900 5.796361106805500 3.3549895680373800 1.6926548304867900 4.184643465936760 1.664935510969040 2.444164122452900 2.076084126562580 3.195940594901760 3.005585980583680 2.4897119640246200 4.674325456533960 4.686901387343680 3.494922706775520 3.3869111335898300 2.7650831757454000 1.6459602100320700 5.721596793673550 3.7681415936260000 3.389880595942570 3.2392360234615300 1.107865150993360 4.422935089145490 2.846790092966790 4.857587934089740 1.9455062388875000 3.772186184617980 3.38619289802401 3.4290328101725600 1.67641055966931
TSLA 0.5850107207203760 17.156187483394400 10.399214049925100 4.4277633277152100 3.6091944099638600 7.838277368913550 8.497498554361150 6.942318052379590 11.869125056380600 6.585337670253510 61.53565959801890 6.902666360817650 6.036614649798380 3.334158132981510 11.525382688444900 4.253196085293570 13.156194542168400 2.16379466742828 3.8386669196994500 5.397624369807920 7.269908330652030 9.61806053671233 5.29920993211232 10.120199490960500 7.52399060676904 3.5883387647849100 10.91946424962620 5.479550312392730 9.198142780590680 6.480533630985800 10.667207312155700 6.6995656120472500 5.770380630699220 5.790822346807030 6.757328055582850 16.147306078345500 13.761974728908800 12.721679620832200 6.234411865052230 4.717116400036020 4.573884825499780 7.7080934252316 5.985301398605330 8.964722103729750 7.3885503671613200 3.3585067039371600 12.274835805430100 7.093503843481950 8.978073774142480 8.89900161469113 6.242380713683240 15.126009918304300 7.04280283406481 6.233696856364410 10.800358065358700 3.925676811077340 9.174204891683350 5.835577062346950 5.697353650387830 8.642285763578660 8.955939625690110 2.875745411440870 6.185148827213010 5.646482034460030 7.702787422504250 10.166082809779800 13.201585099951500 4.05660697251729 15.052068785119900 8.206708007421870 14.51086706889700 5.735093779004500 7.33747276633759 5.932037432147590 3.699807324189360 12.188256703889500 6.433834832812520 4.302885364890110 4.432855310741760 7.895781931607190 8.395711324363750 7.009344764450020 9.717805180043230 6.270401296403380 2.7819720770576400 5.1270021604538400 5.655430994157620 5.729851772464570 6.201231492518910 18.20309023904880 7.475465608354280 6.015561576271750 6.185325340686630 5.1329047958320600 4.528057457143670 7.787149545822260 9.218198068718820 6.979401011905070 5.263126380427260 13.51819441506440 4.399773710655670 5.721633002790910 6.189531043615860 7.7002623788861200 8.966829188772450 2.9964042942430300 8.538250267103950 5.609847087488910 10.760284248591900 10.939219618758400 13.388988380162500 4.857416617207890 5.455694375900140 7.5335232457248100 6.352533114729940 9.904959824489590 10.820421860130500 9.620547836670590 12.937923857943800 6.475287578689300 8.483234471276030 5.838151990371050 6.300931382635260 3.6565724601718900 4.3654091427590000 3.0680197785274100 7.2402120707858100 6.22332170141115 7.236285446817890 6.596758655313790 7.69789261843365 7.239414269788620 6.477032658963380 8.516396563748890 7.969771533477350 6.105815535990720 9.748429341994420 2.3485026483547600 8.476813610614930 8.55986756774767 11.268490074905700 8.419868459713400 5.2501575110367 4.969128683850740 8.724443999008110 8.14680259278398 3.908441678245860 7.881159356097550 7.904655220464040 5.340758034796250 8.485521074824120 9.043169415888290 10.025916135301700 7.23473302340119 2.3855211880848000 7.093346785592870 7.869970382095630 5.524783555228340 7.596780378241850 5.055624943576840 8.023641911717190 6.242942779761760 12.812853149274300 5.677910129442630 9.984722680020280 7.3783371705278400 7.047825978575980 11.495552676934500 8.790824452659210 10.675106339110600 6.109679190808450 5.48002162971601 9.3066419265155 7.340361512835880 5.3610630593606400 5.606009396720620 14.985191161084300 5.881511591158940 9.173720272332300 5.1749378211796800 5.498339667305940 6.510283037699460 8.579477526768080 20.2290509496417 4.1147381503473300 6.198700835960700 7.029739225680170 6.589807852507000 9.960238312349800 7.374451461183190 9.925426636945640 12.358243881480200 5.314928058715600 6.480063217438860 5.7044988580570300 5.529362846804740 8.604965456151770 5.717598265510470 2.0336960293854400 6.616476384819830 9.906261483553990 8.736429950711150 9.551887419328360 4.349912217092500 7.052958212508020 4.462172113407780 13.894080521765400 3.9819101711101600 7.1770070624875100 3.2876423219281300 12.120496246542900 5.6250871291502500 6.544175220605000 9.861071090362160 6.056224033919500 9.255531209649700 9.230974890144180 9.05832132694369 8.319266553581760 12.0673951518444 8.96306936019611 11.42958804376920 6.090520337711590 10.559871650422900 2.5834868419627500 9.16997031705001 14.770139396785800 7.29685737885762 7.8581643650119800 7.663079062664630 12.313172869713900 7.483270274231750 7.813544186700900 9.824039477017150 11.603432285548800 6.595043776093160 7.158979137605640 4.778657561970820 16.19625680557650 3.859051870396700 8.370802343905920 8.079139633123480 4.205045090249860 7.741488456430070 3.821431756122550 8.709886575134710 11.51195130476810 3.4796638267793700 13.888920175838400 8.939442282207540 11.676556401522200 3.4849322230662100 14.976122044597600 10.912930632287000 11.514343094845600 8.065345426722650 5.674495891248520 5.068936090434840 6.153116680857830 14.289883270571300 11.88697677726400 2.497407721930340 3.93024421905188 6.872592365250420 6.050520222627530 11.540816684320200 9.799459458027730 8.51050614779885 6.669784046057830 5.579772674917830 8.936501765815570 7.876146415738240 7.598254269764120 3.7641034814476200 11.891444721502600 6.5887584076566500 5.401418000374180 6.701635502997580 8.273284872980030 8.496626935054070 6.879554605366460 8.404351168670810 3.2836274060192500 10.417275361675100 8.9693797868207 8.049377324561050 8.476075056927250 8.65023243222448 5.861760277822500 7.595941284681210 9.92982232781197 6.40509828606092 4.834989819458140 8.158179715550680 13.91876535159620 8.472022904814240 9.943418135017520 8.330294699093030 3.038139868088040 6.556287712663410 5.582687992989890 8.499663964833170 7.975957911328450 12.524755700655100 5.921954491299030 9.014714262257760 2.165155973956870 3.9304546165025100 9.20713674378606 13.15707769436320 6.568957650545550 4.129753586984850 8.23647862389797 8.450021969055230 9.58881204966267 8.06912641314333 8.317958777192060 9.97230372116299 8.270676542993450 10.38007431254380 5.213100414428040 5.14347766701682 10.262396929943000 7.620955027414740 13.805721296069600 6.190227939704670 9.108899225370190 9.967446732559540 8.78470411278363 9.422779652311770 7.072392765468660 11.028850277897700 8.142525358086910 3.727996450866030 4.460881882996080 6.101713530273730 6.428956936585210 6.704096918320060 5.993343517284210 14.927407406789800 10.397445448676200 8.476802317243610 6.199079362243520 5.262039097139840 8.856521379240350 4.199452444897590 6.521179010077310 9.734986210775310 5.801936797766010 5.354647418300820 9.905845308526220 3.7935963865974700 13.626559708851800 5.9076653264254600 2.3546005495429300 7.840873204706840 6.288025939250700 12.113596138608300 10.312221528989400 6.342319339319830 7.443377807581280 11.718127063041500 5.736776080916160 6.188574874814360 10.444993418499700 5.099943771170870 8.33587021536265 7.034248326360720 6.933582661866590 10.24922929366600 2.123024042893610 15.306051493375700 7.616811433955990 8.21411705369133 9.17799388191373 7.832497040389060 5.20182139446574 4.698640029285740 12.016049485919100 11.568618944787800 9.217732455064380 4.331837319500680 8.622801407583740 9.901346314030260 13.145526943824600 8.242376285706530 4.947750192497840 5.753287900575410 6.790226799581990 4.047798963426550 3.9281233605109400 2.7173069607439300 14.100563083181900 8.24276530888798 7.891895378396510 7.797959247774260 21.349405857051900 5.190727591262870 10.103538372344500 7.592450825619790 18.060835483555400 4.353163984831670 4.282691555976750 7.978241895357420 11.945187423627000 9.30269206800253 3.8181976460336900 7.389633663230800 8.012785147073190 6.5005251794072700 6.461086478614900 5.990663459098050 6.4055417299940500 6.660679484064550 11.368115728031700 3.2577726138667700 6.908961061934920 7.684793354601090 8.222831396370170 10.325347214884500 5.358703680887840 5.764944765003050 9.947396383383930 7.544040921420870 4.176316116510960 5.793914621892190 5.355735611857510 8.61829250078811 7.169561987357960 6.626081658842090 14.313409565179300 10.983215621118700 12.96913109473640 11.889987115801300 17.53505438168800 8.9808847456601 2.000803758553070 7.897787125644340 4.100179064428140 4.925530206987310 2.901632435732440 4.609096980757000 5.419096628206880 6.740321525429960 7.582340810869190 14.200306863162900 8.66463515770417 6.191307978134110 6.632193298877590 2.4390943404063900 15.372486410944200 8.604490936940160 7.067691987249510 6.120385942104990 2.3374453636371800 8.763836552703440 5.300001778609280 10.004681646289700 3.7122766693624000 9.980127948147540 5.537546473756040 6.321771609231780 2.5776169447435600
YUM 0.21092161929074400 9.205346995271610 5.241248339548180 3.04627699134124 1.8092656705357900 4.95401889919877 4.888791428048580 3.868303428552440 7.920029900696860 3.4994990875603 6.902666360817650 8.869010470534110 3.5277303412038900 2.1609823282717000 7.0317992804740700 3.386081909603570 5.442254022904770 0.7021725123226170 3.4261510662120400 2.0010755431675200 4.320624670751740 5.297195880527150 3.5518698015660200 7.146694083606960 3.451009180253020 2.7681160490814100 7.250687429033430 2.657791564273500 4.207803880120800 3.3198019804774400 4.746545906923840 4.626969092826420 2.828741170847230 3.29665711341815 3.982927502255340 7.430201123398380 6.749395272052850 5.962117260166890 2.2601168793282900 3.0925457464566600 2.4333764980564600 3.615829052877770 3.54872113234523 4.596640797652750 4.332096031810760 2.3318517316895500 5.36114117324634 5.139019635712960 5.0593280347703800 4.937846275258660 3.1425917580751400 6.791177044673910 4.5695178758286300 3.9429584051813500 7.355873192996910 2.716117946811440 4.323636986785570 3.182423741879660 3.550959916638630 4.944853158430440 4.206001593098980 1.6743945641716300 3.0152042547275900 3.386834952936290 4.54885955516049 4.357445526294350 5.694252181191850 2.8496451308047100 3.9802378303017400 3.7363638349099600 5.0139880937485400 4.806105837982600 5.840824147245030 2.736420727211360 3.048911066690770 3.496738038545520 4.614390971060410 2.5758328160672800 3.0116121180718100 4.093376152028660 6.020326745671210 4.800416794842170 5.427798468461110 3.7127573834024500 1.8933387846227800 3.8455532999570600 2.950816981855980 3.52657465534745 4.020406346000750 9.904014709665960 4.102840095674420 2.3686499358521100 3.58748889867028 2.98530665496694 3.168526508720170 3.6462046263269300 3.854439106656020 4.00717616141858 3.875292372575550 6.7073659823692 2.3364076558023300 3.990951136335940 4.609847539043280 5.155053134497580 3.5560160331757000 2.527963871729270 6.038757060020330 3.445581306467700 5.2417339048275800 5.881804662302990 6.184116297001020 3.029161358143880 4.745852845892950 4.276593487339490 3.6638763225427200 4.7766305978051700 3.6990528056353900 3.9397817229491300 6.27590425244468 2.920447653573070 3.160393823743750 3.7566759792983000 3.2697930774082900 2.669664239647320 3.600950699691620 2.4607104485292100 4.315077376380720 3.324775890706810 3.6878700390069700 3.1058036017812400 4.945075303377180 4.358970954902170 3.7766622583895100 5.543650984406450 4.726398581249460 4.115647937029790 4.613858111200500 2.196472009506040 5.03246871205607 3.969326488973730 3.1389596617330700 5.117262297019050 3.367072665503910 2.5017920502501800 6.460160146893520 4.532406001013900 2.114444003108920 3.8922229598386800 3.459313978751350 2.3716339749414000 5.141688547107350 6.2201577650916100 4.617707683517100 3.260455900478370 1.264157884386070 5.116656878210660 3.857018372886810 3.4158135531254500 3.7963456216420300 3.388998500316090 4.593596917635350 4.618030744067200 6.456919284482390 4.119955996118210 6.476880576431920 3.1846055745560500 3.9120102368443100 5.597367419935210 3.021927196160660 4.9811090400281000 3.420055601597420 4.723954416737440 6.39439948784509 3.89505510015005 2.9749941436073900 3.5313641981839700 8.200435176109840 3.989872503175780 5.535976457585120 3.188581450474110 3.44379661437595 3.1252408890997000 4.640753784948630 8.624468911269200 2.772793198540840 3.842035621960460 5.681755308008690 2.6205676575521400 5.130636707957540 3.6409789381805300 5.681195125559270 8.25605666603448 2.1261657198686500 4.641432843136780 3.8016401794564800 2.551751081906590 4.551434812725020 3.306859033093800 0.760054520668903 4.178982986357250 5.325969662727360 4.192756467077970 6.7011097271566600 2.4824241019284600 3.5443855984297300 2.612565341891170 6.100908371786260 2.977060734402330 4.693524933786170 2.534233129526540 4.61035438264498 3.97044776134421 2.9440856179249200 5.813714837278170 4.593179102094490 3.945891888273260 3.2485345209137200 5.739163894617640 2.8849226874677700 4.841872274175930 3.660675745948670 4.869108695070480 4.715942355019590 5.618040716889480 1.8710370235123300 7.0865027316993200 6.507939718068100 4.479522933396220 5.45468850089631 4.921131793221300 7.341904736966870 4.669593337144650 4.150962081503540 6.013785431111210 5.770355208698520 4.107320814975100 2.531374634794380 3.139305051531170 5.260214120953500 2.9332914708009 3.7919751329065600 5.062277698907910 2.7342574083713100 3.147199087727200 3.7135596182781100 4.780014123233460 5.283076161422150 2.14859996505281 8.52004449603591 4.975042094031660 6.523679320776120 2.7753682160233300 3.0431119763936600 4.551179590433810 6.007466426257290 4.606199922025970 3.601141518477830 3.8831474563373000 3.3553030853943200 5.69922605308718 5.2878717301020600 1.8916592773022200 1.5821720512555700 3.256073441429750 3.7027270547489400 6.474938479489780 6.356214258998570 3.6136026088718900 4.4227461861167200 4.318987438493760 4.763718941343120 4.9147923705408000 3.1264989255517800 3.7463090298588500 5.630286041566590 5.1308790282704100 4.63371085530699 4.452349882814620 5.045839204447120 4.489412926386010 4.2507698030590400 4.703661698524040 1.9774577423934700 5.057797438411470 5.048658575849420 4.345903403196630 3.477576922225720 5.109613120156750 3.5060937679289400 5.02336126220612 4.60264363919582 3.857852319888730 3.317941839280130 3.7447724251213100 5.437626493973170 4.077835858506250 3.3445617516647600 4.4149233401128800 2.6837761169366500 4.386533818706120 4.195054578465440 4.186871457700800 4.752774998410060 6.2628198427684500 3.4516577106157300 5.228065203108430 2.249831373893570 3.2810709553026000 5.402496539176810 6.147950702545820 3.378232818762810 3.355912968531120 4.816360956763760 4.288360963219940 5.821745953775190 4.153715197823880 4.501585091147540 6.737370277763390 2.3484110770970200 4.912359481973510 3.958215270377970 3.7173990640549600 5.091032904891480 4.245187111156320 4.790908820015630 3.1432651716787500 5.135304597139960 5.545047428989450 4.6174991219838200 4.834939071879710 4.0754350534881700 4.7331327748485500 4.562045288628770 2.102142040990890 3.6798481286345300 3.6131861503382900 4.477300456241050 5.341491479881240 3.4692351791637900 5.110761938968390 3.8640334944260300 5.8752001024361900 3.9892897977250800 3.4815592857892700 5.132748362834890 3.1206152847135400 2.9595819818143300 5.656505549337380 2.7716544408354900 3.044988720080140 3.853937182004730 3.0124185954157900 6.387717852927420 4.234839510489910 2.516596469696530 4.0219718269024800 4.629065437893520 5.805069219677770 6.781567269040210 4.004692151286200 3.281438331548640 7.316719334549530 2.315265163588470 2.7719790214522900 3.5492104356833100 2.8953787090048300 2.4764912839660500 4.64276372121274 3.998148571938620 3.3415435514159200 1.621790340606920 6.809989819298730 4.0256185612057400 4.201492836032640 4.313451238484540 4.097403969758270 3.3488295813469400 2.7719740256766500 3.507681691576600 4.7051565685481600 3.0574649096851000 2.9254256518950100 6.274178536540300 4.911319093948760 7.717012964043680 2.6777733395446000 3.1611398350001800 3.489548522060210 4.574415329918140 4.458832635478880 2.747551500534310 1.4112735333370000 8.52527105341821 4.678923205850580 4.178725732957010 4.730184670843760 6.742769807470110 3.3171561576535 5.6237739142568700 4.1038463458750800 10.15012119050400 2.316078503225060 2.5856019963694000 4.614604363588530 7.606138632618520 4.02770395871831 3.6759848909977300 3.2150690398090100 4.767664527384010 3.606227597531250 3.629019640926550 3.4955405068201600 4.172252684320320 3.6204755952148300 6.100035536267430 3.1458647715989500 5.802410074983140 4.989714890472360 4.568965331032730 6.089861161373650 3.2885380576313300 3.34396166208309 6.125519296349190 3.9126148976727900 2.858144579189870 3.479748748080410 3.394375922622170 4.18515708175577 5.115712197526590 4.221817135652180 4.400939164819980 5.135617099126860 6.126947452881820 7.291551564466480 4.970542916830700 5.39552300348049 1.344844766375660 5.003293322118680 2.3182719055278100 3.7506826219362200 2.3970247371771500 3.009649899301100 3.8820312331857800 3.719919633716070 5.003251539062640 5.854162119804110 3.2065062568457500 3.6617924884866300 2.5767069056959500 2.433213695346850 9.416690146754570 4.715552570628720 4.547252715771820 4.416467378239830 1.0559529618944800 5.17451912362293 3.56742154645358 7.039137365031960 2.41146607194254 3.9880001532205200 4.058170320602020 3.5532587603583200 1.9091588444658900
DE 0.25689075405562000 8.36616085390796 9.48987084613506 2.5926806623967100 2.46183741718611 5.846505701662350 6.348736932316660 3.380551295631630 8.401763774215780 2.919945204281930 6.036614649798380 3.5277303412038900 12.498608577776300 1.6905551792336000 6.045235910203670 5.381737546475740 5.377004068257120 1.7601418009008400 3.9796927027345000 3.4345978710670600 8.412961172829620 8.028246012916210 2.6683243354959000 7.026309931593440 1.7303187042344900 1.2593669215138500 5.848877501964760 3.571183061650150 4.6878542224416600 4.000625848206830 4.811522773178060 7.040446166468860 2.50152392143336 2.5911461258499800 3.299068550741370 9.420963598170820 6.731888420010930 6.555163983010810 4.346445389896290 2.9284705021957900 2.311530340977440 5.938364192576400 1.8044260917245 3.2017627617500200 4.511743295862320 2.0619688082386900 6.9522597421492600 5.913905127494430 5.1219640620186800 6.101653609209420 2.397098270396980 6.072682957458720 7.161117893784530 3.6763077469889900 8.027389239193190 3.0026534964901400 4.488183831513990 4.732586247171130 5.181180416802340 4.390471279016520 4.78300871938882 3.5681211082983000 3.377297830593240 3.333060697752660 4.322315951973920 5.235759407208590 4.066764352903010 2.741902767742460 3.4538873188433100 3.9796669191484300 5.5448698289356 4.925626484161340 6.582338677675370 3.0942035002518800 1.8052378554468300 3.538243953688710 4.9091197953506700 3.627606579106730 4.441599607531230 5.660747464216300 4.610241647688410 3.721482389606750 4.81269892176424 3.904646502784730 2.1153917066155700 3.9594262130228600 3.1859676397459300 3.7729242465438200 4.0660230105681900 8.611483929580510 7.823285895761090 2.5918996213982000 4.2880143235703200 3.071693805869090 2.0367799268273300 2.862874387458200 4.451978539882570 7.722156778418210 2.439824432676560 7.112549380767800 2.5420830949633300 6.766663978928620 5.079224891947780 4.618312108124410 3.964035022085960 1.4575564967706300 4.485233174816780 1.6097583369541700 6.209401637838770 7.683711992502060 10.94792497460040 3.0047466496598600 5.454248464967410 6.194928478166760 2.666765764234500 6.682248753595450 3.736760259195910 3.429109696756110 7.201943309640030 3.035436916418540 3.219779561531460 2.761473589954530 4.75883395533543 1.8005823314000700 4.298678328162020 1.607588858306000 3.390542817898780 3.2972501357811900 3.971409346229120 4.201270108510160 5.639057901105220 5.979514805083330 2.6153422907484300 6.333504276310350 6.057956446985460 3.487018410358770 8.414323748230010 2.075853719239300 6.646476976357460 5.317403147796390 3.3850560238020500 4.098460156288380 3.53022395376725 3.2700572068449800 7.689539533101240 6.114940231775600 2.6198272919616400 3.116128922334390 4.4813746128954400 2.252429542747650 6.520106941211820 8.087783832911510 4.7919074784837300 3.921639527205920 1.8120042814585400 5.115282187930110 4.393853356214920 3.0446461911524000 4.1067034497123700 2.1970950413055800 6.032770994210680 8.220236216153420 5.96833696662191 3.8354494328183900 5.927633950122370 3.399965618676660 4.267349467450450 6.244205764102130 3.294136473840260 4.515258159362450 3.2799853462380000 3.9225679635137800 7.481480262948830 4.078800557802210 3.1184359271905400 4.9403064785716700 8.765598575433950 7.525778783329430 4.860611035638570 2.613766378147460 5.364327522922560 4.358181681175190 6.8647143106448200 8.85562845363429 2.1217720065083600 6.018351693363580 5.805625080591890 4.954235822617950 6.453549370431310 6.947980453703520 6.183883055435040 6.92741723117497 2.732955887076470 6.2093035687296000 3.2625900407707900 3.912884751656630 4.9364937099741700 3.151105929434510 1.0206671916288100 3.3184518290682400 4.621631474918600 4.365070279796390 10.338105981570800 2.7259275462581700 3.158488603013640 1.7846577228259200 5.792881507037660 3.005036905401390 4.058993696770240 3.2795778681227600 4.4429371691518300 5.002260804611620 3.365980311090550 6.153395276971970 4.662913530786310 6.91604117667777 5.819519469589150 8.59349012383955 3.091302121725320 5.190805475955030 3.5075146729641000 7.016782916943150 5.748405124574500 5.153954159920250 1.4870940077746600 6.985901894232920 6.353131882673440 3.625996502148540 7.188048934911100 7.480493462826850 7.756087596399080 6.960376442487110 5.779177940899750 8.336536382399640 5.646000710289020 3.649133041003530 2.6494223601987400 1.63238589496633 3.6076858032127200 2.2312201351013300 3.603390732862920 5.117497364069480 2.327882015724030 4.535866545530850 4.265111593181550 7.343306354375440 5.994179824458330 1.9482506461726300 9.26167326419208 6.429666725064420 6.578696246549780 2.203611772186840 4.434864562593110 3.1843094735931200 6.17730408998642 7.526664818038120 3.483294483297230 7.707258120468070 3.67977161101193 6.077125860378050 3.713148989972640 1.2926909860942500 1.8971372202441700 2.637195419454330 4.34829783045418 5.8211656059882 5.779735971483290 4.87307866579748 6.20155346558554 6.030284649152340 6.526234652468750 4.54893009963025 2.564713262183540 4.29176243411145 6.612907307989590 6.803154149287090 4.008182744263690 6.0378370345114300 6.919090069917870 4.7133587457551900 2.8363722683108200 4.629836442020410 1.8398466971640400 5.942761421986760 6.45768935353017 4.6430019557303800 4.839896173190420 7.579986906986080 8.580384269092040 7.192387020466820 3.372835811841990 4.552207888367230 2.5377103278247600 4.340004724410130 5.881109330729500 4.410903688133520 4.948174127388820 7.202685347355760 4.0312494251511600 4.1779763430052700 5.810694308080220 4.9653995061444500 8.256822752965900 7.98497051220311 2.8497749112506300 5.886855876676040 1.1393589464646800 2.363072035445360 6.904585104941070 10.481556556229800 3.370237777304530 3.777502597480230 5.393347482653260 7.601651298634930 5.862833037593480 3.9276129423538300 7.536085287066480 6.556381915736070 2.552681006562700 5.832070142218080 5.5303721755218200 3.294522902099590 5.268013367073400 5.63961089751136 7.723713918674500 3.104623490269400 5.997648711944400 7.414332365650830 6.030428021905560 6.05153179554957 4.1953093579209100 6.343924370302730 3.9187096809448800 1.4700011479255200 5.058405219535720 5.282814688598630 6.225382176401220 5.482025026468780 3.971864667472920 4.857842706863960 3.7864583576987400 7.486220189535030 5.988422543592850 5.093340878829120 5.939429599541090 2.3099347422477500 3.074325829961660 7.9867524677548000 2.6624046277224400 2.355054577127850 6.099754002044410 3.4153603146306800 9.77572830450472 3.0002420561130800 3.585825781876690 2.860366397550090 3.5953592550330700 5.551490944045220 7.868356773929690 6.002356448591000 4.447574184694720 9.417262070220410 3.116387866210930 3.0569030801671200 3.592513579641000 3.7977832325100700 1.9490616589714600 5.675407582387660 6.119587881499570 2.969363687382690 1.992900877216070 11.773741540451600 4.613691821863500 6.790355901092440 8.25208069930433 3.770537877328780 4.411690886774760 2.937530383589010 5.330640900732210 5.439007245310770 3.1069762798692700 2.668217115399950 6.854081364226440 6.466567848291480 6.862798364139010 1.1363120715042500 4.432823825778160 1.6875944758563600 7.080775847712010 4.577580321874800 2.1261104771588800 2.475094247946420 7.839348105135830 6.063161412273710 5.734181322745730 6.013860787979940 7.2323863137096500 2.746098915013940 7.342990219149820 5.5129614781983600 10.627313608676900 2.1371658418019100 2.284557143553500 3.6483465245791000 7.114304019990120 3.4035978268898200 4.6533339673044100 4.006535473267630 5.7170805535668800 4.121526114668320 2.4784464917350600 5.636285292641950 3.702843866720500 3.498140792381370 7.945871990171390 2.8235957594958900 5.90290537038606 6.920336343113330 5.184006774089520 5.454318161812350 1.7238449930457000 3.2155669635039300 6.836021070578040 2.898887398438780 2.8827824682594200 2.3066969300838000 4.3228174142970200 5.453824245316920 6.07874689142443 3.2465592422633000 5.229554385838390 5.446308066470950 4.0500910964890300 7.04158179463052 6.016920245347640 5.314610747814010 1.264672676731280 8.134304735513270 2.929731318937300 3.1342622074472800 1.4222296628175500 3.1167732736428300 5.711520042457520 3.3890326038849100 5.177985858847760 5.802858054116400 3.17006675956408 2.294780562634570 4.187614721820190 2.392307368521740 9.583161889456540 4.617164127077840 2.5535797320111800 5.30183421051453 1.0664344554747200 8.822416817364620 5.745656064379270 6.357826620330780 1.943612722032110 3.591354403979510 4.850863483770670 5.8247506195451 1.6833872360830900
CHD 0.2202142097211800 1.7087849659457900 1.1563982820112000 3.062284593542590 3.1655458782330700 1.7843256281072800 1.7491913272148900 2.0466370252344400 2.558517940631460 2.3001582294075300 3.334158132981510 2.1609823282717000 1.6905551792336000 6.041517357436280 3.3974956531834900 1.222884489031640 2.7180461699337900 2.543999173243370 1.8743651368849600 1.760680951470550 1.9830892568906800 1.1171755317308700 1.8763183497831700 2.2698491674913000 2.4716813744420300 2.213670483669170 3.2538454041259200 2.2207274801920200 2.0433219369987 2.513716345126430 2.5141886521271200 1.1813174145123000 1.874629239310420 2.300870301089400 1.6661329759010900 2.817941405093930 1.821982598668040 2.7190900572465600 1.1183516684076600 2.290133877978740 2.1981393815825400 1.3374235482300700 2.387999391597240 2.286301529617460 2.1599110682252200 3.017216698084310 1.9222995229345100 2.105403584074140 2.5748633250821500 1.0853964054987200 1.46493039331422 3.7931571359835100 1.0104225271463600 2.52689902913608 1.5977464635289600 2.098093598083720 2.360629036898860 2.1275461407980900 1.9395994062678800 2.4247024503269500 2.531608046746 2.268287484792550 1.8600196310302700 2.250441910469340 1.6458763873755400 2.5539012100245600 3.1469873608349200 3.782101185990270 1.8118684125550600 2.2310997907089600 2.505420076445670 1.846387047255790 1.636361985365020 2.986738531666850 2.5061652884324400 1.903656204686560 2.4400206155533900 2.04530349485923 2.345537963275870 2.140510049119310 2.199138968367940 2.058232962756680 1.8443258432957200 2.7465263763884800 1.491370506866050 1.7694058176588900 2.0662437076582300 1.583101048574490 1.791555807002090 2.1791021427880100 0.3507896691219740 2.5743283015228000 1.4181648230472100 2.821371380702030 2.904308967160300 2.0088252446262700 1.7615882441944100 1.3233408796114900 1.6561586758258000 2.394427574660700 1.8348325103892900 1.2931762885545100 1.494233187177960 2.238931667451630 2.2336907396398100 2.2526881319427400 2.7068605724098400 2.1830349838146600 2.365177234925980 1.7197029037688600 1.6819816472970100 2.6617470811886000 2.324035726349490 2.1867433338086700 2.389857752136950 2.6788623358626400 2.3624821355989200 2.4790291894736800 1.7164682161604700 2.498822194968800 1.991057583653350 1.8820076465836800 1.6715966108756300 2.1894134192065400 2.064776559610640 2.3531474481338400 2.6886375190426300 1.9156806097205200 2.2399052776848500 1.9292160579530300 2.2418013744139600 1.1016146443323800 2.3501849038685600 2.2821752533447800 2.3550420056016200 2.0792870937941800 1.5650441318635400 3.229156174008260 2.294442901335710 2.1420982418430100 2.223598869626010 2.732190310338910 2.3539576254887600 2.522513572096300 1.759858870557540 1.767459786177660 2.5460091280659800 2.7834294245461200 1.6393152845106300 2.356577555956120 1.5266095260453800 1.8824597459304400 2.6891384160950800 2.074898251366490 1.3699016525303800 1.8960368137882800 2.0568804125461500 2.492569131208920 1.8184413133469100 2.60867579907719 2.1641545418366700 0.987599372209265 2.6887907994705800 2.790060612445670 2.0225129284565000 2.5416615689574800 2.342020133879460 1.8346177942759900 2.045549926556950 2.5212274640196400 2.0187816988037000 2.3349552584657200 1.5058117284314900 2.539173039344430 2.158825382831110 1.7664692319683200 1.8160888960067500 0.834744554667162 3.0374338164527000 2.3961089375460700 1.9169385562861200 1.4781189033397300 1.3470717535559700 1.749555226371240 2.729280811219690 1.2749014878290500 2.8485497850607100 1.5134401484316100 2.2092693799096900 1.0983498897376500 1.5455133615288900 2.0165059303571600 2.0396710235858900 2.3437769669120600 2.0922861023683700 2.09457885616094 2.0380160195871200 3.084802748718780 3.757639971861870 2.211963287455840 2.3560241625308200 2.247099176449820 1.1968188364112000 1.8937792088152100 2.013743396781350 2.343222474530910 1.9131573433774800 2.6449976538620100 2.293681914251800 2.447390296518150 2.873662912737680 2.7177345125022400 2.574497243419290 2.427223934756220 2.406656324033630 0.7787074605035530 1.7676279018914100 2.361384105422660 1.5493870251730300 1.750800384129420 2.3674812425177500 2.1171675834086100 1.8885878808354500 1.9074288449162900 2.6695235576798700 1.7465041999483500 1.6041199981518300 2.154130051638380 1.482004046484250 1.9214338587910800 2.83110084289763 1.334210097693490 1.8942980395866600 1.3960904091665800 2.6181931218988500 2.2573366601342800 2.1343448313378700 2.5825704259379700 3.4079855928941300 2.0971246196422200 2.31575175057392 2.010757115572290 2.002813657777490 2.9852513136760600 1.6918741299362200 1.8539787732783700 1.957523975016510 2.899967655072950 2.123793364210250 1.6427761205426100 3.0302826381971900 2.3899725494377400 2.3009323170438200 0.537191468288878 3.051772495735490 0.8264591544272440 2.000304306246980 1.5635792580993000 1.8385915202185000 2.372923823005910 2.169390033218920 2.770024721900430 1.7668963672473600 1.6863313517040400 1.9413762342886600 3.1047693168396800 2.059777353679190 1.9514205841912600 1.3792640765036200 1.2667530219062700 2.1951479909335400 1.9049923113758100 1.7622977859402100 2.02008714172945 2.0444330849114300 0.6991370627893870 2.1013763561736000 1.0871943940179600 1.5726681718656400 2.3120926877193100 2.9148278687705000 2.071124764251260 1.8029016202811000 2.5281129001788300 2.386679941716770 2.4517185343828900 1.3902607415229000 1.8130284364124500 1.4141714006600000 1.6061682928800300 1.7187215693398200 2.5499546289272000 2.2710447509112000 2.1968614461500900 2.2844744436071500 1.6941644981825000 1.8375436543582100 1.5005264972585100 2.1313887584438100 2.0320070055723200 1.5326016831726100 1.903234211536190 0.851613332189196 1.6030812006538000 2.405573741856600 1.720514375282670 1.9418964480325300 2.3949412487806000 1.6882601725053700 2.0618741376633900 1.7617812350956400 2.2773708231371700 2.7962927186815600 0.795305013765271 1.936358972962950 2.3521218917937500 1.8612976626641500 1.7658776026128300 1.8679795077890100 1.8046366779545900 1.9112650655217600 2.183538314170700 2.171068413555610 1.9038186419533500 1.5825249405208000 2.157919964955480 2.323993830715290 2.948834845188690 1.3890032621062300 2.5229946640606000 1.8558482881438000 1.9891452863186400 2.291934010614930 2.3410376188986800 1.7372159713325200 2.1296240712528900 0.6941837931090150 2.556642816749230 1.9471326933877700 1.5959471749702100 2.1587433556896100 1.6728237896218700 0.7501492626404720 2.453894548553300 2.084475085110620 2.06428114952926 1.7913605703099100 1.4746950076063700 1.6709561279868100 2.520193604279320 2.3274428058007900 1.8170711303927100 2.262039984368160 2.0885459434399800 2.03976421043941 2.2960282655246200 2.3331478357940900 2.828825610821690 1.4190812741058400 2.0958820738958700 2.2868296217675100 1.109170018511340 2.030783450880530 2.0294707374365000 2.112561437172840 2.398661812530060 1.7637696718611900 1.8058003207700000 1.3002432944791200 1.9719332411370400 2.0154301326700000 2.0828824583584500 1.855474140575220 1.0872106302885600 2.0309402773346200 2.32517570803278 1.8269965484578400 1.6882333850458000 2.6315318876255600 2.696022160332120 2.21028338354591 2.0917264913317400 1.670976463432720 1.6795982583577200 1.3947573479248500 1.5005277346319700 1.9061829901885900 2.540216674902470 1.3259063995705000 1.885017856490090 2.7119757034419000 2.327807609627860 1.8585801919167400 2.39118734542132 2.1309504828359500 1.80259443195834 4.593925927919190 2.504633493370590 1.8606112370522800 1.9724439664493600 2.576755376413100 2.403293936670930 2.6772333495945000 2.6472012189735100 2.2187476689030100 2.218654832567100 2.3074089107920700 1.8660395098633900 2.4659554490232500 1.9221412811671400 2.253557265733700 1.806968398906410 1.9427615799370400 1.8272598864778100 2.001877028571520 2.3006293484162100 2.046614931164900 1.0577336765222200 2.144551390470990 3.269306365949420 2.6686506547637900 2.1467105106785500 2.1261720407947000 2.7693977746044200 1.9294391548969100 2.0985085437332100 1.9531078183494600 1.4505354543019500 1.8185194552024500 2.5066590837243600 2.077672824262480 2.4529137072776800 2.783848654082600 1.9475170177767500 2.5731858314863100 1.9850887894172200 2.7808772831753500 1.1787792368104300 2.2878493067182100 2.1999615716684100 2.1659609985678700 1.7300508971040900 1.4701916488043300 2.0773024448940800 1.9488729520253800 1.829872813944540 2.0165865177760900 2.533713751739460 2.4409228266393200 1.8282622819403400 2.1859480881924700 2.254684230252260 2.7553834872915600 1.687961930452760 2.6911668275266500 1.3383997864335300 1.8370251235132000 1.8055348094782800 2.428327680707160 2.5163516656563300 1.7921601803377500 1.7811689093474000 2.80796390535457
